-834,-437,50,-2.139
-834.542,-438.348,50,-2.139
-835.087,-439.695,49.7424,-2.14278
-835.639,-441.036,49.4848,-2.15374
-836.208,-442.367,49.2272,-2.17136
-836.798,-443.683,48.9697,-2.19511
-837.417,-444.978,48.7121,-2.2245
-838.068,-446.248,48.4545,-2.25904
-838.757,-447.487,48.1969,-2.29827
-839.486,-448.69,47.9393,-2.34175
-840.258,-449.852,47.6817,-2.38905
-841.073,-450.966,47.4242,-2.43975
-841.933,-452.029,47.1666,-2.49347
-842.836,-453.034,46.909,-2.54983
-843.78,-453.976,46.6514,-2.60847
-844.765,-454.852,46.3938,-2.66903
-845.785,-455.656,46.1362,-2.7312
-846.839,-456.384,45.8787,-2.79466
-847.92,-457.034,45.6211,-2.8591
-849.026,-457.603,45.3635,-2.92426
-850.15,-458.088,45.1059,-2.98985
-851.286,-458.488,44.8483,-3.05562
-852.431,-458.803,44.5907,-3.12134
-853.576,-459.032,44.3331,3.09642
-854.719,-459.176,44.0756,3.03148
-855.851,-459.236,43.818,2.96724
-856.97,-459.213,43.5604,2.90389
-858.069,-459.111,43.3028,2.84159
-859.144,-458.932,43.0452,2.78052
-860.192,-458.679,42.7876,2.72081
-861.208,-458.355,42.5301,2.66261
-862.189,-457.965,42.2725,2.60603
-863.134,-457.512,42.0149,2.55121
-864.039,-457.001,41.7573,2.49823
-864.903,-456.435,41.4997,2.4472
-865.726,-455.819,41.2421,2.39819
-866.506,-455.156,40.9846,2.35127
-867.244,-454.452,40.727,2.30651
-867.939,-453.709,40.4694,2.26395
-868.593,-452.931,40.2118,2.22365
-869.206,-452.122,39.9542,2.18563
-869.78,-451.285,39.6966,2.14992
-870.315,-450.424,39.439,2.11653
-870.815,-449.541,39.1815,2.08546
-871.281,-448.638,38.9239,2.05673
-871.715,-447.718,38.6663,2.03032
-872.12,-446.784,38.4087,2.00621
-872.497,-445.837,38.1511,1.98437
-872.849,-444.879,37.8935,1.96479
-873.179,-443.912,37.636,1.94741
-873.489,-442.937,37.3784,1.9322
-873.782,-441.955,37.1208,1.91911
-874.06,-440.968,36.8632,1.90807
-874.326,-439.977,36.6056,1.89904
-874.582,-438.982,36.348,1.89193
-874.83,-437.985,36.0905,1.88668
-875.073,-436.985,35.8329,1.88321
-875.312,-435.985,35.5753,1.88144
-875.55,-434.985,35.3177,1.88128
-875.789,-433.984,35.0601,1.88264
-876.03,-432.985,34.8025,1.88542
-876.276,-431.987,34.5449,1.88954
-876.528,-430.99,34.2874,1.89489
-876.787,-429.997,34.0298,1.90136
-877.055,-429.006,33.7722,1.90885
-877.332,-428.019,33.5146,1.91724
-877.62,-427.035,33.257,1.92644
-877.92,-426.056,32.9994,1.93632
-878.233,-425.082,32.7419,1.94678
-878.558,-424.113,32.4843,1.95768
-878.897,-423.149,32.2267,1.96893
-879.249,-422.191,31.9691,1.9804
-879.615,-421.24,31.7115,1.99197
-879.996,-420.294,31.4539,2.00354
-880.389,-419.354,31.1964,2.0151
-880.797,-418.422,30.9388,2.02666
-881.218,-417.495,30.6812,2.03822
-881.653,-416.576,30.4236,2.04978
-882.101,-415.664,30.166,2.06134
-882.562,-414.758,29.9084,2.0729
-883.037,-413.86,29.6508,2.08446
-883.524,-412.97,29.3933,2.09602
-884.025,-412.087,29.1357,2.10758
-884.54,-411.212,28.8781,2.1198
-885.069,-410.346,28.6205,2.13554
-885.619,-409.493,28.3629,2.15477
-886.19,-408.655,28.1053,2.17708
-886.788,-407.834,27.8478,2.20207
-887.412,-407.034,27.5902,2.22938
-888.066,-406.257,27.3326,2.25864
-888.751,-405.504,27.075,2.28951
-889.466,-404.778,26.8174,2.32167
-890.213,-404.082,26.5598,2.3548
-890.99,-403.417,26.3023,2.3886
-891.798,-402.784,26.0447,2.42279
-892.636,-402.185,25.7871,2.45711
-893.502,-401.62,25.5295,2.4913
-894.394,-401.091,25.2719,2.52513
-895.313,-400.598,25.0143,2.55836
-896.254,-400.14,24.7567,2.59079
-897.218,-399.718,24.4992,2.62222
-898.202,-399.332,24.2416,2.65247
-897.57,-397.726,24.2416,2.75204
-899.083,-397.624,24.2416,2.75204
-900.595,-397.519,24.5241,2.74883
-902.105,-397.408,24.8065,2.73947
-903.608,-397.284,25.089,2.72437
-905.103,-397.14,25.3715,2.70394
-906.587,-396.972,25.6539,2.67857
-908.056,-396.775,25.9364,2.64863
-909.507,-396.544,26.2189,2.61451
-910.936,-396.277,26.5014,2.57655
-912.341,-395.971,26.7838,2.53512
-913.716,-395.623,27.0663,2.49055
-915.059,-395.232,27.3488,2.44319
-916.364,-394.797,27.6313,2.39335
-917.629,-394.318,27.9137,2.34135
-918.849,-393.795,28.1962,2.2875
-920.021,-393.231,28.4787,2.23208
-921.14,-392.626,28.7612,2.1754
-922.204,-391.982,29.0436,2.11772
-923.209,-391.304,29.3261,2.05931
-924.154,-390.592,29.6086,2.00043
-925.035,-389.852,29.891,1.94133
-925.851,-389.086,30.1735,1.88226
-926.601,-388.3,30.456,1.82344
-927.285,-387.496,30.7385,1.76509
-927.901,-386.678,31.0209,1.70743
-928.45,-385.852,31.3034,1.65067
-928.934,-385.02,31.5859,1.59499
-929.353,-384.187,31.8684,1.54058
-929.708,-383.355,32.1508,1.48763
-930.002,-382.529,32.4333,1.4363
-930.237,-381.71,32.7158,1.38674
-930.416,-380.902,32.9983,1.33912
-930.542,-380.106,33.2807,1.29357
-930.617,-379.325,33.5632,1.25022
-930.645,-378.559,33.8457,1.2092
-930.629,-377.81,34.1281,1.17063
-930.572,-377.078,34.4106,1.13461
-930.479,-376.363,34.6931,1.10124
-930.352,-375.665,34.9756,1.07062
-930.194,-374.984,35.258,1.04281
-930.01,-374.318,35.5405,1.01791
-929.802,-373.667,35.823,0.99596
-929.574,-373.029,36.1055,0.977031
-929.329,-372.402,36.3879,0.961167
-929.07,-371.785,36.6704,0.948406
-928.8,-371.176,36.9529,0.938782
-928.523,-370.572,37.2354,0.932315
-928.241,-369.971,37.5178,0.92902
-927.957,-369.372,37.8003,0.928904
-927.675,-368.772,38.0828,0.931966
-927.397,-368.168,38.3652,0.938194
-927.127,-367.559,38.6477,0.947571
-926.867,-366.943,38.9302,0.96007
-926.62,-366.317,39.2127,0.975658
-926.391,-365.68,39.4951,0.994292
-926.181,-365.03,39.7776,1.01592
-925.995,-364.365,40.0601,1.04049
-925.834,-363.685,40.3426,1.06793
-925.704,-362.989,40.625,1.09816
-925.607,-362.276,40.9075,1.13112
-925.547,-361.545,41.19,1.16669
-925.526,-360.798,41.4725,1.2048
-925.549,-360.034,41.7549,1.24533
-925.618,-359.255,42.0374,1.28817
-925.737,-358.461,42.3199,1.33317
-925.912,-357.654,42.6023,1.38581
-926.154,-356.834,42.8848,1.4475
-926.472,-356.006,43.1673,1.51724
-926.876,-355.173,43.4498,1.59392
-927.374,-354.343,43.7322,1.67652
-927.972,-353.523,44.0147,1.76405
-928.673,-352.724,44.2972,1.85559
-929.479,-351.956,44.5797,1.95027
-930.39,-351.229,44.8621,2.04729
-931.403,-350.556,45.1446,2.14586
-932.514,-349.946,45.4271,2.2453
-933.716,-349.409,45.7096,2.34494
-935.003,-348.954,45.992,2.44416
-936.363,-348.588,46.2745,2.54241
-937.789,-348.317,46.557,2.63917
-939.269,-348.145,46.8394,2.73398
-940.793,-348.074,47.1219,2.82639
-942.35,-348.104,47.4044,2.91603
-943.931,-348.236,47.6869,3.00255
-945.525,-348.466,47.9693,3.08566
-947.125,-348.792,48.2518,-3.11811
-948.723,-349.209,48.5343,-3.04259
-950.313,-349.713,48.8168,-2.97118
-951.889,-350.297,49.0992,-2.90403
-953.447,-350.955,49.3817,-2.84125
-954.985,-351.681,49.6642,-2.78294
-956.499,-352.47,49.9467,-2.72915
-957.989,-353.314,50.2291,-2.67992
-959.454,-354.207,50.5116,-2.63524
-960.896,-355.144,50.7941,-2.59508
-962.314,-356.12,51.0765,-2.5594
-963.71,-357.129,51.359,-2.5281
-965.087,-358.166,51.6415,-2.50109
-966.447,-359.226,51.924,-2.47825
-967.791,-360.306,52.2064,-2.45942
-967.328,-362.227,52.4889,-2.55975
-968.882,-363.345,52.4889,-2.55975
-970.439,-364.457,52.6231,-2.56735
-972.012,-365.545,52.7574,-2.58918
-973.613,-366.586,52.8916,-2.6238
-975.253,-367.559,53.0258,-2.66985
-976.937,-368.444,53.1601,-2.72601
-978.668,-369.22,53.2943,-2.79103
-980.445,-369.871,53.4285,-2.86372
-982.262,-370.381,53.5628,-2.94295
-984.109,-370.734,53.697,-3.02763
-985.975,-370.922,53.8312,-3.11516
-987.847,-370.961,53.9654,3.10267
-989.714,-370.879,54.0997,3.04311
-991.572,-370.692,54.2339,2.9932
-993.417,-370.417,54.3681,2.95178
-995.248,-370.07,54.5024,2.91773
-997.066,-369.664,54.6366,2.89
-998.872,-369.212,54.7708,2.86757
-1000.67,-368.721,54.9051,2.8495
-1002.45,-368.2,55.0393,2.83486
-1004.23,-367.654,55.1735,2.82281
-1006,-367.088,55.3077,2.81254
-1007.77,-366.504,55.442,2.80328
-1009.53,-365.903,55.5762,2.79432
-1011.28,-365.285,55.7104,2.78497
-1013.03,-364.65,55.8447,2.77462
-1014.77,-363.994,55.9789,2.76268
-1016.5,-363.315,56.1131,2.74861
-1018.22,-362.608,56.2474,2.73189
-1019.92,-361.869,56.3816,2.71208
-1021.61,-361.091,56.5158,2.68874
-1023.28,-360.27,56.6501,2.6615
-1024.91,-359.398,56.7843,2.62999
-1026.52,-358.469,56.9185,2.59392
-1028.09,-357.476,57.0527,2.55301
-1029.61,-356.414,57.187,2.507
-1031.07,-355.275,57.3212,2.4557
-1032.47,-354.056,57.4554,2.39893
-1033.79,-352.751,57.5897,2.33654
-1035.02,-351.359,57.7239,2.26841
-1036.14,-349.879,57.8581,2.19447
-1037.14,-348.312,57.9924,2.11465
-1038,-346.663,58.1266,2.02892
-1038.71,-344.938,58.2608,1.93728
-1039.25,-343.148,58.395,1.83975
-1039.6,-341.306,58.5293,1.73638
-1039.75,-339.431,58.6635,1.62725
-1039.68,-337.545,58.7977,1.51243
-1039.38,-335.672,58.932,1.39205
-1038.85,-333.843,59.0662,1.26624
-1038.08,-332.089,59.2004,1.13516
-1037.08,-330.444,59.3347,0.998973
-1035.85,-328.945,59.4689,0.857881
-1034.41,-327.629,59.6031,0.712087
-1032.79,-326.529,59.7373,0.561816
-1031,-325.679,59.8716,0.407306
-1029.1,-325.107,60.0058,0.24881
-1027.13,-324.835,60.14,0.0865923
-1025.13,-324.88,60.2743,-0.0790688
-1023.15,-325.246,60.4085,-0.247886
-1021.25,-325.931,60.5427,-0.41956
-1019.49,-326.921,60.677,-0.593784
-1017.93,-328.191,60.8112,-0.770244
-1016.59,-329.707,60.9454,-0.948617
-1015.55,-331.425,61.0796,-1.12857
-1014.81,-333.291,61.2139,-1.30978
-1014.42,-335.248,61.3481,-1.4919
-1014.37,-337.232,61.4823,-1.6746
-1014.68,-339.18,61.6166,-1.85753
-1015.32,-341.028,61.7508,-2.04034
-1016.28,-342.717,61.885,-2.22269
-1017.52,-344.192,62.0193,-2.40424
-1019,-345.409,62.1535,-2.58465
-1020.65,-346.332,62.2877,-2.76357
-1022.44,-346.936,62.4219,-2.94067
-1024.29,-347.206,62.5562,-3.11563
-1026.15,-347.141,62.6904,2.99508
-1027.97,-346.749,62.8246,2.8254
-1029.68,-346.048,62.9589,2.65883
-1031.25,-345.065,63.0931,2.49566
-1032.63,-343.832,63.2273,2.3362
-1033.79,-342.388,63.3616,2.18072
-1034.71,-340.774,63.4958,2.0295
-1035.37,-339.032,63.63,1.8828
-1035.76,-337.203,63.7643,1.74086
-1035.89,-335.328,63.8985,1.60392
-1035.76,-333.444,64.0327,1.47219
-1035.38,-331.583,64.1669,1.34587
-1034.76,-329.775,64.3012,1.22514
-1033.93,-328.044,64.4354,1.11017
-1032.91,-326.409,64.5696,1.00111
-1031.71,-324.884,64.7039,0.898083
-1030.37,-323.48,64.8381,0.801187
-1028.89,-322.201,64.9723,0.710509
-1027.3,-321.051,65.1066,0.626107
-1025.61,-320.028,65.2408,0.548017
-1023.85,-319.129,65.375,0.476249
-1022.03,-318.348,65.5092,0.410787
-1020.16,-317.678,65.6435,0.351588
-1018.26,-317.11,65.7777,0.298582
-1016.32,-316.634,65.9119,0.25167
-1015.88,-315.528,65.9119,0.145198
-1015.32,-315.373,65.9119,0.145198
-1014.76,-315.218,66.0479,0.146693
-1014.21,-315.061,66.1839,0.151045
-1013.65,-314.901,66.3199,0.158062
-1013.1,-314.736,66.4558,0.167555
-1012.54,-314.566,66.5918,0.179342
-1011.99,-314.389,66.7278,0.192602
-1011.44,-314.203,66.8637,0.210591
-1010.89,-314.007,66.9997,0.230254
-1010.34,-313.8,67.1357,0.252305
-1009.8,-313.581,67.2717,0.276523
-1009.26,-313.348,67.4076,0.302696
-1008.72,-313.101,67.5436,0.33062
-1008.19,-312.839,67.6796,0.360102
-1007.67,-312.562,67.8155,0.390954
-1007.15,-312.268,67.9515,0.422999
-1006.64,-311.958,68.0875,0.456069
-1006.14,-311.631,68.2235,0.490001
-1005.65,-311.288,68.3594,0.524644
-1005.16,-310.928,68.4954,0.55985
-1004.69,-310.551,68.6314,0.595484
-1004.23,-310.158,68.7673,0.631413
-1003.78,-309.749,68.9033,0.667517
-1003.34,-309.324,69.0393,0.703678
-1002.92,-308.884,69.1753,0.739789
-1002.51,-308.429,69.3112,0.775748
-1002.11,-307.96,69.4472,0.811459
-1001.73,-307.478,69.5832,0.846834
-1001.36,-306.982,69.7192,0.881791
-1001,-306.475,69.8551,0.916253
-1000.66,-305.956,69.9911,0.950153
-1000.34,-305.426,70.1271,0.983424
-1000.03,-304.886,70.263,1.01601
-999.739,-304.337,70.399,1.04786
-999.46,-303.779,70.535,1.07892
-999.197,-303.213,70.671,1.10915
-998.948,-302.639,70.8069,1.13853
-998.714,-302.059,70.9429,1.167
-998.494,-301.473,71.0789,1.19456
-998.288,-300.881,71.2148,1.22117
-998.096,-300.285,71.3508,1.24682
-997.916,-299.684,71.4868,1.27149
-997.75,-299.079,71.6228,1.29518
-997.596,-298.47,71.7587,1.31788
-997.453,-297.859,71.8947,1.33959
-997.323,-297.245,72.0307,1.36031
-997.203,-296.628,72.1666,1.38005
-997.093,-296.009,72.3026,1.39882
-996.994,-295.389,72.4386,1.41662
-996.904,-294.767,72.5746,1.43349
-996.822,-294.144,72.7105,1.44943
-996.75,-293.52,72.8465,1.46447
-996.685,-292.895,72.9825,1.47862
-996.628,-292.269,73.1185,1.49193
-996.578,-291.643,73.2544,1.50441
-996.535,-291.017,73.3904,1.5161
-996.498,-290.39,73.5264,1.52703
-996.467,-289.762,73.6623,1.53723
-996.441,-289.135,73.7983,1.54675
-996.421,-288.507,73.9343,1.55562
-996.405,-287.88,74.0703,1.56388
-996.393,-287.252,74.2062,1.57157
-996.386,-286.624,74.3422,1.57873
-996.382,-285.997,74.4782,1.5854
-996.382,-285.369,74.6141,1.59163
-996.386,-284.741,74.7501,1.59747
-996.392,-284.114,74.8861,1.60295
-996.402,-283.487,75.0221,1.60812
-996.414,-282.859,75.158,1.61303
-996.429,-282.232,75.294,1.61772
-996.446,-281.605,75.43,1.62223
-996.466,-280.978,75.5659,1.62661
-996.488,-280.352,75.7019,1.6309
-996.513,-279.725,75.8379,1.63515
-996.54,-279.098,75.9739,1.63939
-996.569,-278.472,76.1098,1.64367
-996.601,-277.846,76.2458,1.64803
-996.635,-277.22,76.3818,1.65251
-996.671,-276.594,76.5178,1.65714
-996.71,-275.969,76.6537,1.66196
-996.752,-275.343,76.7897,1.66699
-996.797,-274.718,76.9257,1.67229
-996.845,-274.094,77.0616,1.67786
-996.896,-273.469,77.1976,1.68375
-996.95,-272.845,77.3336,1.68997
-997.008,-272.222,77.4696,1.69655
-997.069,-271.599,77.6055,1.7035
-997.135,-270.976,77.7415,1.71085
-997.204,-270.354,77.8775,1.71861
-997.278,-269.733,78.0134,1.72679
-997.356,-269.112,78.1494,1.73538
-997.44,-268.493,78.2854,1.74441
-997.528,-267.874,78.4214,1.75387
-997.621,-267.256,78.5573,1.76375
-997.72,-266.639,78.6933,1.77404
-997.825,-266.023,78.8293,1.78474
-997.936,-265.409,78.9652,1.79583
-998.052,-264.796,79.1012,1.80729
-998.175,-264.184,79.2372,1.81908
-998.304,-263.574,79.3732,1.83119
-998.44,-262.966,79.5091,1.84357
-998.582,-262.785,79.5091,1.9439
-998.889,-262.015,79.5091,1.9439
-999.198,-261.245,79.3604,1.94672
-999.511,-260.477,79.2117,1.95486
-999.832,-259.712,79.0629,1.96784
-1000.16,-258.953,78.9142,1.98523
-1000.51,-258.2,78.7654,2.00659
-1000.88,-257.455,78.6167,2.03151
-1001.26,-256.72,78.4679,2.05961
-1001.67,-255.998,78.3192,2.09051
-1002.1,-255.288,78.1705,2.12386
-1002.56,-254.594,78.0217,2.15932
-1003.04,-253.917,77.873,2.19658
-1003.55,-253.259,77.7242,2.23534
-1004.08,-252.621,77.5755,2.27531
-1004.64,-252.005,77.4267,2.31622
-1005.23,-251.414,77.278,2.35783
-1005.84,-250.847,77.1293,2.3999
-1006.47,-250.306,76.9805,2.44221
-1007.13,-249.793,76.8318,2.48455
-1007.81,-249.308,76.683,2.52673
-1008.51,-248.852,76.5343,2.56858
-1009.23,-248.426,76.3855,2.60993
-1009.96,-248.03,76.2368,2.65065
-1010.71,-247.663,76.0881,2.69058
-1011.48,-247.327,75.9393,2.72961
-1012.26,-247.021,75.7906,2.76762
-1013.05,-246.744,75.6418,2.80453
-1013.86,-246.495,75.4931,2.84023
-1014.67,-246.276,75.3444,2.87467
-1015.48,-246.083,75.1956,2.90777
-1016.31,-245.918,75.0469,2.93948
-1017.14,-245.778,74.8981,2.96975
-1017.97,-245.663,74.7494,2.99856
-1018.81,-245.571,74.6006,3.02588
-1019.65,-245.501,74.4519,3.0517
-1020.49,-245.453,74.3032,3.076
-1021.34,-245.424,74.1544,3.0988
-1022.18,-245.414,74.0057,3.1201
-1023.02,-245.422,73.8569,3.13992
-1023.87,-245.445,73.7082,-3.1249
-1024.71,-245.484,73.5594,-3.10795
-1025.56,-245.536,73.4107,-3.09237
-1026.4,-245.601,73.262,-3.07814
-1027.24,-245.677,73.1132,-3.06518
-1028.09,-245.764,72.9645,-3.05345
-1028.93,-245.86,72.8157,-3.04288
-1029.77,-245.964,72.667,-3.0334
-1030.61,-246.076,72.5183,-3.02494
-1031.44,-246.195,72.3695,-3.01743
-1032.28,-246.32,72.2208,-3.01079
-1033.12,-246.45,72.072,-3.00493
-1033.96,-246.584,71.9233,-2.99976
-1034.79,-246.723,71.7745,-2.9952
-1035.63,-246.865,71.6258,-2.99116
-1036.46,-247.011,71.4771,-2.98754
-1037.3,-247.159,71.3283,-2.98424
-1038.13,-247.31,71.1796,-2.98102
-1038.96,-247.464,71.0308,-2.9778
-1039.8,-247.62,70.8821,-2.97459
-1040.63,-247.779,70.7333,-2.97137
-1041.46,-247.941,70.5846,-2.96815
-1042.29,-248.105,70.4359,-2.96493
-1043.13,-248.272,70.2871,-2.96172
-1043.96,-248.442,70.1384,-2.9585
-1044.79,-248.615,69.9896,-2.95528
-1045.62,-248.79,69.8409,-2.95206
-1046.45,-248.968,69.6922,-2.94885
-1047.27,-249.148,69.5434,-2.94563
-1048.1,-249.331,69.3947,-2.94241
-1048.93,-249.517,69.2459,-2.93919
-1049.76,-249.706,69.0972,-2.93597
-1050.58,-249.897,68.9484,-2.93276
-1051.41,-250.091,68.7997,-2.92954
-1052.24,-250.287,68.651,-2.92632
-1053.06,-250.486,68.5022,-2.9231
-1053.88,-250.688,68.3535,-2.91989
-1054.71,-250.893,68.2047,-2.91667
-1055.53,-251.1,68.056,-2.91345
-1056.35,-251.31,67.9072,-2.91023
-1057.18,-251.522,67.7585,-2.90702
-1058,-251.737,67.6098,-2.9038
-1058.82,-251.955,67.461,-2.90058
-1059.64,-252.175,67.3123,-2.89736
-1060.46,-252.398,67.1635,-2.89414
-1061.27,-252.624,67.0148,-2.89093
-1062.09,-252.852,66.8661,-2.88771
-1062.91,-253.083,66.7173,-2.88449
-1063.73,-253.316,66.5686,-2.88127
-1064.54,-253.552,66.4198,-2.87806
-1065.36,-253.791,66.2711,-2.87457
-1066.17,-254.033,66.1223,-2.87025
-1066.98,-254.279,65.9736,-2.86503
-1067.8,-254.53,65.8249,-2.85888
-1068.61,-254.786,65.6761,-2.85177
-1069.42,-255.048,65.5274,-2.84367
-1070.22,-255.317,65.3786,-2.83456
-1071.03,-255.594,65.2299,-2.82444
-1071.83,-255.879,65.0811,-2.81327
-1072.62,-256.174,64.9324,-2.80106
-1073.42,-256.479,64.7837,-2.78781
-1074.2,-257.249,64.6349,-2.67482
-1075.73,-258.575,64.6349,-2.67482
-1077.25,-259.897,64.7603,-2.67963
-1078.78,-261.206,64.8856,-2.69361
-1080.32,-262.487,65.0109,-2.71607
-1081.88,-263.728,65.1363,-2.74636
-1083.47,-264.918,65.2616,-2.78384
-1085.07,-266.045,65.387,-2.8279
-1086.7,-267.098,65.5123,-2.87795
-1088.35,-268.067,65.6376,-2.9334
-1090.03,-268.943,65.763,-2.99371
-1091.71,-269.717,65.8883,-3.05834
-1093.41,-270.381,66.0137,-3.12678
-1095.1,-270.931,66.139,3.08467
-1096.79,-271.36,66.2643,3.01009
-1098.47,-271.665,66.3897,2.93315
-1100.11,-271.845,66.515,2.85428
-1101.72,-271.899,66.6404,2.7739
-1103.28,-271.828,66.7657,2.69242
-1104.79,-271.637,66.891,2.61022
-1106.22,-271.328,67.0164,2.52768
-1107.58,-270.908,67.1417,2.44515
-1108.85,-270.385,67.267,2.36297
-1110.02,-269.765,67.3924,2.28145
-1111.09,-269.058,67.5177,2.2009
-1112.06,-268.274,67.6431,2.12162
-1112.92,-267.421,67.7684,2.04386
-1113.66,-266.511,67.8937,1.9679
-1114.29,-265.554,68.0191,1.89397
-1114.81,-264.558,68.1444,1.82229
-1115.21,-263.533,68.2698,1.7531
-1115.51,-262.487,68.3951,1.68657
-1115.69,-261.429,68.5204,1.6229
-1115.78,-260.366,68.6458,1.56225
-1115.77,-259.303,68.7711,1.50479
-1115.66,-258.246,68.8965,1.45066
-1115.48,-257.199,69.0218,1.39998
-1115.21,-256.166,69.1471,1.35289
-1114.87,-255.149,69.2725,1.30948
-1114.46,-254.149,69.3978,1.26985
-1113.99,-253.168,69.5232,1.23408
-1113.47,-252.205,69.6485,1.20224
-1112.91,-251.26,69.7738,1.17439
-1112.3,-250.331,69.8992,1.15058
-1111.66,-249.416,70.0245,1.13085
-1111,-248.514,70.1499,1.11521
-1110.32,-247.622,70.2752,1.1037
-1109.62,-246.737,70.4005,1.0963
-1108.91,-245.856,70.5259,1.09303
-1108.2,-244.975,70.6512,1.09387
-1107.5,-244.093,70.7766,1.0988
-1106.81,-243.205,70.9019,1.10777
-1106.13,-242.309,71.0272,1.12077
-1105.48,-241.403,71.1526,1.13773
-1104.85,-240.483,71.2779,1.1586
-1104.26,-239.549,71.4033,1.18331
-1103.71,-238.598,71.5286,1.2118
-1103.2,-237.63,71.6539,1.24359
-1102.76,-236.641,71.7793,1.28883
-1102.39,-235.63,71.9046,1.34375
-1102.12,-234.598,72.03,1.40859
-1101.97,-233.547,72.1553,1.48232
-1101.94,-232.486,72.2806,1.56397
-1102.05,-231.424,72.406,1.65257
-1102.31,-230.375,72.5313,1.74724
-1102.73,-229.354,72.6567,1.84709
-1103.31,-228.38,72.782,1.95132
-1104.05,-227.471,72.9073,2.05914
-1104.95,-226.646,73.0327,2.1698
-1106.01,-225.925,73.158,2.2826
-1107.2,-225.326,73.2833,2.39686
-1108.52,-224.866,73.4087,2.51196
-1109.96,-224.559,73.534,2.6273
-1111.48,-224.417,73.6594,2.74232
-1113.08,-224.448,73.7847,2.85649
-1114.74,-224.659,73.91,2.96932
-1116.42,-225.051,74.0354,3.08035
-1118.12,-225.624,74.1607,-3.09404
-1119.8,-226.373,74.2861,-2.98787
-1121.47,-227.293,74.4114,-2.8847
-1123.08,-228.374,74.5367,-2.78484
-1124.65,-229.606,74.6621,-2.68862
-1126.14,-230.979,74.7874,-2.59631
-1127.56,-232.478,74.9128,-2.50815
-1128.9,-234.091,75.0381,-2.42438
-1130.14,-235.806,75.1634,-2.34518
-1131.3,-237.61,75.2888,-2.27072
-1132.37,-239.49,75.4141,-2.20114
-1133.35,-241.436,75.5395,-2.13658
-1134.24,-243.436,75.6648,-2.07712
-1135.05,-245.482,75.7901,-2.02283
-1135.78,-247.566,75.9155,-1.97377
-1136.44,-249.68,76.0408,-1.92996
-1137.04,-251.818,76.1662,-1.89142
-1137.58,-253.974,76.2915,-1.85813
-1138.08,-256.145,76.4168,-1.83006
-1138.53,-258.327,76.5422,-1.80717
-1138.95,-260.517,76.6675,-1.78937
-1139.35,-262.713,76.7929,-1.7766
-1139.73,-264.911,76.9182,-1.76875
-1140.1,-267.112,77.0435,-1.76569
-1138.41,-268.232,77.1689,-1.89979
-1138.64,-269.292,77.1689,-1.89979
-1138.86,-270.351,77.3616,-1.90146
-1139.09,-271.41,77.5543,-1.90637
-1139.33,-272.466,77.7471,-1.91439
-1139.58,-273.519,77.9398,-1.92539
-1139.83,-274.568,78.1325,-1.93924
-1140.1,-275.612,78.3253,-1.9558
-1140.38,-276.65,78.518,-1.97496
-1140.69,-277.68,78.7107,-1.99658
-1141.01,-278.702,78.9034,-2.02054
-1141.35,-279.713,79.0962,-2.04673
-1141.72,-280.712,79.2889,-2.07501
-1142.1,-281.698,79.4816,-2.10527
-1142.52,-282.669,79.6744,-2.13739
-1142.96,-283.623,79.8671,-2.17125
-1143.43,-284.559,80.0598,-2.20675
-1143.92,-285.475,80.2525,-2.24376
-1144.45,-286.369,80.4453,-2.28219
-1145,-287.238,80.638,-2.32191
-1145.57,-288.082,80.8307,-2.36282
-1146.18,-288.898,81.0235,-2.40481
-1146.81,-289.685,81.2162,-2.44779
-1147.47,-290.44,81.4089,-2.49164
-1148.15,-291.162,81.6016,-2.53628
-1148.86,-291.85,81.7944,-2.58159
-1149.59,-292.501,81.9871,-2.62749
-1150.34,-293.114,82.1798,-2.67387
-1151.11,-293.688,82.3726,-2.72065
-1151.9,-294.222,82.5653,-2.76772
-1152.71,-294.715,82.758,-2.81502
-1153.53,-295.166,82.9507,-2.86243
-1154.36,-295.574,83.1435,-2.90989
-1155.2,-295.939,83.3362,-2.9573
-1156.05,-296.259,83.5289,-3.00458
-1156.91,-296.536,83.7217,-3.05165
-1157.77,-296.77,83.9144,-3.09844
-1158.63,-296.959,84.1071,3.13833
-1159.49,-297.105,84.2999,3.09235
-1160.35,-297.208,84.4926,3.04687
-1161.21,-297.269,84.6853,3.00199
-1162.06,-297.289,84.878,2.95775
-1162.9,-297.268,85.0708,2.91423
-1163.73,-297.207,85.2635,2.8715
-1164.56,-297.108,85.4562,2.82961
-1165.37,-296.973,85.649,2.78864
-1166.16,-296.801,85.8417,2.74863
-1166.95,-296.595,86.0344,2.70964
-1167.72,-296.357,86.2271,2.67174
-1168.47,-296.087,86.4199,2.63497
-1169.21,-295.787,86.6126,2.59938
-1169.92,-295.46,86.8053,2.56504
-1170.63,-295.105,86.9981,2.53197
-1171.31,-294.726,87.1908,2.50023
-1171.98,-294.324,87.3835,2.46985
-1172.63,-293.899,87.5762,2.44089
-1173.26,-293.455,87.769,2.41338
-1173.88,-292.991,87.9617,2.38736
-1174.48,-292.511,88.1544,2.36285
-1175.06,-292.014,88.3472,2.33991
-1175.63,-291.503,88.5399,2.31854
-1176.19,-290.979,88.7326,2.29879
-1176.73,-290.442,88.9253,2.28068
-1177.26,-289.896,89.1181,2.26423
-1177.78,-289.34,89.3108,2.24946
-1178.28,-288.775,89.5035,2.2364
-1178.78,-288.204,89.6963,2.22507
-1179.27,-287.627,89.889,2.21547
-1179.76,-287.045,90.0817,2.20762
-1180.24,-286.458,90.2745,2.20154
-1180.71,-285.869,90.4672,2.19722
-1181.19,-285.278,90.6599,2.19468
-1181.66,-284.687,90.8526,2.19392
-1182.13,-284.095,91.0454,2.19436
-1182.61,-283.506,91.2381,2.20536
-1183.09,-282.924,91.4308,2.2199
-1183.59,-282.352,91.6236,2.23963
-1184.1,-281.793,91.8163,2.26406
-1184.64,-281.25,92.009,2.2927
-1185.19,-280.726,92.2017,2.32507
-1185.77,-280.224,92.3945,2.36073
-1186.37,-279.747,92.5872,2.39925
-1187,-279.297,92.7799,2.44021
-1187.66,-278.877,92.9727,2.48323
-1188.33,-278.49,93.1654,2.52793
-1189.04,-278.138,93.3581,2.57394
-1189.76,-277.823,93.5508,2.62094
-1190.51,-277.546,93.7436,2.66859
-1191.28,-277.309,93.9363,2.71659
-1192.07,-277.113,94.129,2.76466
-1192.87,-276.959,94.3218,2.8125
-1193.69,-276.847,94.5145,2.85988
-1194.52,-276.778,94.7072,2.90653
-1195.37,-276.751,94.8999,2.95225
-1196.22,-276.766,95.0927,2.9968
-1197.07,-276.821,95.2854,3.04001
-1197.93,-276.916,95.4781,3.08167
-1198.79,-277.049,95.6709,3.12162
-1199.65,-277.219,95.8636,-3.12348
-1200.52,-277.423,96.0563,-3.08741
-1201.38,-277.661,96.2491,-3.05347
-1199.45,-275.889,96.4418,-2.90499
-1200.21,-276.118,96.4418,-2.90499
-1200.97,-276.345,96.1563,-2.90716
-1201.73,-276.569,95.8708,-2.91346
-1202.5,-276.785,95.5854,-2.92361
-1203.27,-276.989,95.2999,-2.93731
-1204.04,-277.179,95.0144,-2.9543
-1204.81,-277.35,94.729,-2.97431
-1205.59,-277.502,94.4435,-2.99709
-1206.37,-277.63,94.158,-3.02237
-1207.16,-277.732,93.8725,-3.04993
-1207.94,-277.806,93.5871,-3.07952
-1208.73,-277.851,93.3016,-3.11093
-1209.52,-277.864,93.0161,3.13927
-1210.31,-277.844,92.7307,3.10489
-1211.1,-277.79,92.4452,3.06934
-1211.88,-277.701,92.1597,3.0328
-1212.67,-277.576,91.8743,2.99548
-1213.44,-277.415,91.5888,2.95754
-1214.21,-277.216,91.3033,2.91917
-1214.97,-276.982,91.0178,2.88053
-1215.72,-276.71,90.7324,2.84178
-1216.46,-276.402,90.4469,2.80307
-1217.19,-276.059,90.1614,2.76457
-1217.9,-275.681,89.876,2.72639
-1218.6,-275.269,89.5905,2.68868
-1219.29,-274.824,89.305,2.65157
-1219.95,-274.347,89.0196,2.61518
-1220.6,-273.84,88.7341,2.57962
-1221.23,-273.303,88.4486,2.545
-1221.84,-272.74,88.1631,2.51142
-1222.43,-272.15,87.8777,2.47899
-1223.01,-271.535,87.5922,2.44779
-1223.56,-270.897,87.3067,2.41791
-1224.09,-270.239,87.0213,2.38943
-1224.61,-269.56,86.7358,2.36242
-1225.11,-268.863,86.4503,2.33695
-1225.59,-268.149,86.1649,2.31309
-1226.06,-267.42,85.8794,2.2909
-1226.5,-266.677,85.5939,2.27042
-1226.94,-265.922,85.3084,2.25171
-1227.36,-265.156,85.023,2.23481
-1227.77,-264.38,84.7375,2.21976
-1228.16,-263.596,84.452,2.20659
-1228.55,-262.804,84.1666,2.19534
-1228.93,-262.007,83.8811,2.18602
-1229.3,-261.205,83.5956,2.17866
-1229.67,-260.4,83.3101,2.17327
-1230.04,-259.592,83.0247,2.16987
-1230.4,-258.783,82.7392,2.16846
-1230.76,-257.973,82.4537,2.16904
-1231.12,-257.165,82.1683,2.17162
-1231.49,-256.358,81.8828,2.17619
-1231.86,-255.555,81.5973,2.18275
-1232.24,-254.756,81.3119,2.19127
-1232.62,-253.962,81.0264,2.20176
-1233.02,-253.175,80.7409,2.21418
-1233.42,-252.395,80.4554,2.22852
-1233.83,-251.625,80.17,2.24474
-1234.26,-250.865,79.8845,2.26283
-1234.71,-250.118,79.599,2.28275
-1235.16,-249.383,79.3136,2.30446
-1235.64,-248.663,79.0281,2.32794
-1236.13,-247.96,78.7426,2.35313
-1236.64,-247.275,78.4572,2.38
-1237.17,-246.609,78.1717,2.40849
-1237.72,-245.965,77.8862,2.43857
-1238.29,-245.343,77.6007,2.47019
-1238.87,-244.747,77.3153,2.50328
-1239.48,-244.177,77.0298,2.53779
-1240.11,-243.635,76.7443,2.57368
-1240.75,-243.123,76.4589,2.61087
-1241.42,-242.644,76.1734,2.64931
-1242.1,-242.198,75.8879,2.68894
-1242.8,-241.787,75.6025,2.72969
-1243.51,-241.414,75.317,2.77149
-1244.24,-241.079,75.0315,2.81428
-1244.99,-240.784,74.746,2.858
-1245.74,-240.531,74.4606,2.90256
-1246.51,-240.32,74.1751,2.9479
-1247.29,-240.153,73.8896,2.99395
-1248.07,-240.031,73.6042,3.04064
-1248.85,-239.955,73.3187,3.08788
-1249.64,-239.925,73.0332,3.13561
-1250.43,-239.942,72.7478,-3.09944
-1251.22,-240.006,72.4623,-3.05097
-1252,-240.117,72.1768,-3.00225
-1252.78,-240.276,71.8913,-2.95335
-1253.55,-240.482,71.6059,-2.90434
-1254.3,-240.735,71.3204,-2.85532
-1255.04,-241.033,71.0349,-2.80635
-1255.77,-241.377,70.7495,-2.75751
-1256.48,-241.764,70.464,-2.70888
-1257.17,-242.195,70.1785,-2.66055
-1257.84,-242.668,69.893,-2.61257
-1258.48,-243.181,69.6076,-2.56504
-1259.1,-243.732,69.3221,-2.51789
-1259.69,-244.319,69.0366,-2.47835
-1260.26,-244.934,68.7512,-2.44216
-1260.81,-245.575,68.4657,-2.41038
-1261.34,-246.238,68.1802,-2.38267
-1261.86,-246.919,67.8948,-2.35875
-1260.31,-246.699,67.8948,-2.23856
-1260.62,-247.831,67.8948,-2.23856
-1260.93,-248.963,68.1484,-2.24172
-1261.25,-250.092,68.402,-2.25077
-1261.57,-251.215,68.6556,-2.26515
-1261.9,-252.329,68.9092,-2.28429
-1262.24,-253.432,69.1628,-2.30764
-1262.6,-254.521,69.4164,-2.3347
-1262.98,-255.595,69.67,-2.36496
-1263.37,-256.65,69.9236,-2.39795
-1263.78,-257.684,70.1772,-2.4332
-1264.21,-258.697,70.4308,-2.47028
-1264.66,-259.686,70.6844,-2.50876
-1265.13,-260.649,70.938,-2.54826
-1265.62,-261.586,71.1916,-2.5884
-1266.12,-262.495,71.4452,-2.62881
-1266.64,-263.376,71.6988,-2.66915
-1267.17,-264.228,71.9525,-2.70911
-1267.72,-265.051,72.2061,-2.74837
-1268.28,-265.845,72.4597,-2.78667
-1268.85,-266.61,72.7133,-2.82374
-1269.43,-267.348,72.9669,-2.85933
-1270.02,-268.059,73.2205,-2.8932
-1270.61,-268.744,73.4741,-2.92516
-1271.21,-269.405,73.7277,-2.95502
-1271.82,-270.043,73.9813,-2.98259
-1272.42,-270.66,74.2349,-3.00772
-1273.03,-271.258,74.4885,-3.03028
-1273.64,-271.839,74.7421,-3.05013
-1274.26,-272.405,74.9957,-3.06719
-1274.87,-272.958,75.2493,-3.08135
-1275.48,-273.502,75.5029,-3.09256
-1276.1,-274.037,75.7565,-3.10075
-1276.71,-274.568,76.0101,-3.10589
-1277.33,-275.095,76.2638,-3.10843
-1277.94,-275.62,76.5174,-3.11067
-1278.56,-276.143,76.771,-3.11291
-1279.17,-276.665,77.0246,-3.11515
-1279.79,-277.185,77.2782,-3.11738
-1280.4,-277.703,77.5318,-3.11962
-1281.02,-278.219,77.7854,-3.12186
-1281.64,-278.733,78.039,-3.1241
-1282.25,-279.246,78.2926,-3.12634
-1282.87,-279.756,78.5462,-3.12858
-1283.48,-280.265,78.7998,-3.13082
-1284.1,-280.772,79.0534,-3.13305
-1284.71,-281.278,79.307,-3.13529
-1285.33,-281.781,79.5606,-3.13753
-1285.94,-282.283,79.8142,-3.13977
-1286.56,-282.783,80.0678,3.14118
-1287.18,-283.281,80.3214,3.13894
-1287.79,-283.777,80.5751,3.1367
-1288.41,-284.272,80.8287,3.13446
-1289.02,-284.765,81.0823,3.13222
-1289.64,-285.255,81.3359,3.12998
-1290.25,-285.745,81.5895,3.12774
-1290.87,-286.232,81.8431,3.12551
-1291.48,-286.717,82.0967,3.12327
-1292.1,-287.201,82.3503,3.12103
-1292.71,-287.683,82.6039,3.11879
-1293.33,-288.163,82.8575,3.11655
-1293.95,-288.641,83.1111,3.11431
-1294.56,-289.118,83.3647,3.11207
-1295.18,-289.592,83.6183,3.10983
-1295.79,-290.065,83.8719,3.1076
-1296.41,-290.536,84.1255,3.10536
-1297.02,-291.005,84.3791,3.10312
-1297.64,-291.473,84.6328,3.10088
-1298.25,-291.938,84.8864,3.09864
-1298.87,-292.402,85.14,3.0964
-1299.48,-292.864,85.3936,3.09416
-1300.1,-293.324,85.6472,3.09193
-1300.71,-293.783,85.9008,3.08969
-1301.32,-294.239,86.1544,3.08745
-1301.94,-294.694,86.408,3.08521
-1302.55,-295.147,86.6616,3.08297
-1303.17,-295.598,86.9152,3.08073
-1303.78,-296.048,87.1688,3.07849
-1304.39,-296.495,87.4224,3.07626
-1305.01,-296.941,87.676,3.07402
-1305.62,-297.385,87.9296,3.07178
-1306.24,-297.827,88.1832,3.06954
-1306.85,-298.268,88.4368,3.0673
-1307.46,-298.706,88.6904,3.06506
-1308.08,-299.143,88.9441,3.06282
-1308.69,-299.578,89.1977,3.06058
-1309.3,-300.011,89.4513,3.05835
-1309.91,-300.443,89.7049,3.05611
-1310.53,-300.872,89.9585,3.05387
-1311.14,-301.3,90.2121,3.05304
-1311.75,-301.729,90.4657,3.05556
-1312.36,-302.162,90.7193,3.06052
-1312.98,-302.598,90.9729,3.06703
-1313.59,-303.04,91.2265,3.07428
-1314.21,-303.488,91.4801,3.08156
-1314.82,-303.942,91.7337,3.08825
-1315.43,-304.401,91.9873,3.09378
-1316.05,-304.863,92.2409,3.09768
-1316.66,-305.328,92.4945,3.09953
-1317.28,-305.793,92.7481,3.099
-1317.89,-306.257,93.0017,3.09581
-1318.56,-305.67,93.2554,2.97333
-1321.43,-305.342,93.2554,2.97333
-1324.31,-305.018,93.3044,2.978
-1327.19,-304.709,93.3534,2.99159
-1330.07,-304.431,93.4024,3.01353
-1332.96,-304.198,93.4515,3.04322
-1335.86,-304.022,93.5005,3.08013
-1338.76,-303.916,93.5495,3.1237
-1341.66,-303.89,93.5985,-3.10977
-1344.56,-303.956,93.6476,-3.05441
-1347.45,-304.122,93.6966,-2.99388
-1350.32,-304.396,93.7456,-2.92868
-1353.16,-304.784,93.7946,-2.85923
-1355.98,-305.29,93.8437,-2.786
-1358.74,-305.919,93.8927,-2.70939
-1361.45,-306.67,93.9417,-2.62981
-1364.09,-307.543,93.9907,-2.54765
-1366.66,-308.536,94.0398,-2.46329
-1369.12,-309.644,94.0888,-2.37709
-1371.49,-310.861,94.1378,-2.28939
-1373.73,-312.179,94.1869,-2.20052
-1375.86,-313.587,94.2359,-2.1108
-1377.84,-315.076,94.2849,-2.02054
-1379.69,-316.633,94.3339,-1.93001
-1381.39,-318.245,94.383,-1.8395
-1382.94,-319.899,94.432,-1.74926
-1384.34,-321.58,94.481,-1.65955
-1385.58,-323.275,94.53,-1.5706
-1386.67,-324.97,94.5791,-1.48263
-1387.61,-326.652,94.6281,-1.39585
-1388.4,-328.308,94.6771,-1.31047
-1389.05,-329.927,94.7261,-1.22665
-1389.56,-331.497,94.7752,-1.14459
-1389.94,-333.009,94.8242,-1.06444
-1390.21,-334.455,94.8732,-0.986353
-1390.36,-335.827,94.9223,-0.91047
-1390.41,-337.119,94.9713,-0.83692
-1390.37,-338.328,95.0203,-0.765821
-1390.25,-339.45,95.0693,-0.697282
-1390.05,-340.482,95.1184,-0.631402
-1389.78,-341.424,95.1674,-0.568269
-1389.45,-342.276,95.2164,-0.507961
-1389.08,-343.039,95.2654,-0.450548
-1388.66,-343.714,95.3145,-0.39609
-1388.21,-344.305,95.3635,-0.344638
-1387.73,-344.814,95.4125,-0.296234
-1387.22,-345.246,95.4615,-0.250913
-1386.7,-345.604,95.5106,-0.2087
-1386.16,-345.893,95.5596,-0.169613
-1385.61,-346.118,95.6086,-0.133661
-1385.05,-346.283,95.6576,-0.100848
-1384.48,-346.395,95.7067,-0.0711672
-1383.91,-346.458,95.7557,-0.0446078
-1383.35,-346.478,95.8047,-0.0211505
-1382.77,-346.459,95.8538,-0.000769795
-1382.2,-346.408,95.9028,0.0165662
-1381.63,-346.329,95.9518,0.0308956
-1381.06,-346.229,96.0008,0.0422623
-1380.49,-346.11,96.0499,0.050716
-1379.93,-345.98,96.0989,0.0563117
-1379.36,-345.843,96.1479,0.0591098
-1378.79,-345.703,96.1969,0.0591756
-1378.22,-345.565,96.246,0.0565789
-1377.65,-345.434,96.295,0.0513944
-1377.08,-345.314,96.344,0.0437009
-1376.52,-345.209,96.393,0.0335812
-1375.94,-345.125,96.4421,0.0211219
-1375.37,-345.063,96.4911,0.00641335
-1374.8,-345.029,96.5401,-0.010451
-1374.23,-345.026,96.5891,-0.0293745
-1373.66,-345.058,96.6382,-0.0502576
-1373.1,-345.128,96.6872,-0.072998
-1372.53,-345.238,96.7362,-0.0974913
-1371.97,-345.392,96.7853,-0.123631
-1371.42,-345.593,96.8343,-0.151308
-1370.87,-345.842,96.8833,-0.180411
-1370.33,-346.142,96.9323,-0.210831
-1369.81,-346.497,96.9814,-0.245278
-1369.3,-346.918,97.0304,-0.289954
-1368.81,-347.422,97.0794,-0.344284
-1368.37,-348.022,97.1284,-0.407484
-1367.96,-348.728,97.1775,-0.478794
-1367.62,-349.55,97.2265,-0.557483
-1367.35,-350.492,97.2755,-0.642847
-1367.18,-351.557,97.3245,-0.734211
-1367.12,-352.742,97.3736,-0.830922
-1367.18,-354.042,97.4226,-0.932358
-1367.39,-355.45,97.4716,-1.03792
-1367.75,-356.951,97.5207,-1.14703
-1368.29,-358.531,97.5697,-1.25915
-1369.02,-360.171,97.6187,-1.37374
-1369.95,-361.85,97.6677,-1.49031
-1371.08,-363.545,97.7168,-1.60838
-1372.41,-365.233,97.7658,-1.7275
-1373.95,-366.888,97.8148,-1.84723
-1375.68,-368.486,97.8638,-1.96717
-1377.61,-370.004,97.9129,-2.08693
-1379.72,-371.42,97.9619,-2.20615
-1382,-372.715,98.0109,-2.32447
-1384.42,-373.869,98.0599,-2.44158
-1386.97,-374.87,98.109,-2.55717
-1374.55,-369.443,98.158,-2.72074
-1377.39,-370.752,98.158,-2.72074
-1380.23,-372.056,98.0273,-2.72663
-1383.07,-373.339,97.8966,-2.74373
-1385.94,-374.58,97.766,-2.77117
-1388.83,-375.761,97.6353,-2.80816
-1391.74,-376.863,97.5046,-2.85391
-1394.68,-377.868,97.374,-2.90764
-1397.65,-378.762,97.2433,-2.96865
-1400.65,-379.527,97.1126,-3.03621
-1403.65,-380.151,96.9819,-3.10967
-1406.66,-380.623,96.8513,3.09481
-1409.66,-380.931,96.7206,3.01147
-1412.64,-381.069,96.5899,2.92411
-1415.58,-381.032,96.4592,2.83328
-1418.47,-380.818,96.3286,2.73952
-1421.27,-380.429,96.1979,2.64335
-1423.99,-379.868,96.0672,2.54526
-1426.59,-379.142,95.9366,2.44573
-1429.07,-378.262,95.8059,2.34518
-1431.4,-377.241,95.6752,2.24405
-1433.57,-376.092,95.5445,2.14272
-1435.57,-374.833,95.4139,2.04158
-1437.38,-373.482,95.2832,1.94098
-1439.01,-372.058,95.1525,1.84125
-1440.45,-370.581,95.0218,1.74269
-1441.7,-369.07,94.8912,1.6456
-1442.75,-367.544,94.7605,1.55025
-1443.61,-366.022,94.6298,1.45688
-1444.29,-364.521,94.4992,1.36573
-1444.79,-363.056,94.3685,1.277
-1445.12,-361.642,94.2378,1.1909
-1445.29,-360.291,94.1071,1.10758
-1445.32,-359.014,93.9765,1.02722
-1445.21,-357.818,93.8458,0.949944
-1444.97,-356.711,93.7151,0.875881
-1444.62,-355.697,93.5844,0.805137
-1444.18,-354.779,93.4538,0.737802
-1443.64,-353.959,93.3231,0.673951
-1443.03,-353.236,93.1924,0.613645
-1442.34,-352.61,93.0618,0.55693
-1441.6,-352.077,92.9311,0.503836
-1440.81,-351.635,92.8004,0.454382
-1439.98,-351.278,92.6697,0.408573
-1439.11,-351.003,92.5391,0.366401
-1438.21,-350.804,92.4084,0.327844
-1437.29,-350.675,92.2777,0.292872
-1436.35,-350.61,92.147,0.26144
-1435.39,-350.603,92.0164,0.233493
-1434.42,-350.647,91.8857,0.208966
-1433.44,-350.736,91.755,0.187784
-1432.46,-350.864,91.6243,0.169862
-1431.47,-351.024,91.4937,0.155104
-1430.47,-351.21,91.363,0.143408
-1429.47,-351.417,91.2323,0.134662
-1428.47,-351.639,91.1017,0.128747
-1427.47,-351.87,90.971,0.125535
-1426.47,-352.104,90.8403,0.124893
-1425.46,-352.337,90.7096,0.126679
-1424.46,-352.565,90.579,0.130747
-1423.46,-352.782,90.4483,0.136944
-1422.46,-352.985,90.3176,0.145112
-1421.47,-353.17,90.1869,0.155088
-1420.47,-353.334,90.0563,0.166706
-1419.49,-353.472,89.9256,0.179793
-1418.5,-353.584,89.7949,0.194175
-1417.53,-353.666,89.6643,0.209675
-1416.56,-353.717,89.5336,0.226111
-1415.59,-353.734,89.4029,0.243302
-1414.64,-353.718,89.2722,0.261062
-1413.69,-353.666,89.1416,0.279206
-1412.76,-353.579,89.0109,0.297546
-1411.83,-353.457,88.8802,0.315897
-1410.92,-353.3,88.7495,0.33407
-1410.02,-353.109,88.6189,0.351879
-1409.13,-352.884,88.4882,0.369154
-1408.26,-352.621,88.3575,0.392584
-1407.4,-352.308,88.2269,0.42378
-1406.58,-351.93,88.0962,0.462139
-1405.79,-351.478,87.9655,0.506891
-1405.05,-350.942,87.8348,0.557295
-1404.37,-350.316,87.7042,0.612638
-1403.76,-349.596,87.5735,0.672241
-1403.22,-348.779,87.4428,0.735453
-1402.77,-347.865,87.3121,0.801651
-1402.41,-346.857,87.1815,0.87024
-1402.17,-345.759,87.0508,0.940657
-1402.03,-344.577,86.9201,1.01236
-1402.03,-343.318,86.7895,1.08484
-1402.15,-341.99,86.6588,1.15762
-1402.4,-340.604,86.5281,1.23022
-1402.8,-339.169,86.3974,1.30223
-1403.33,-337.696,86.2668,1.37324
-1404,-336.195,86.1361,1.44285
-1404.81,-334.676,86.0054,1.51071
-1405.75,-333.149,85.8747,1.57649
-1406.82,-331.623,85.7441,1.63988
-1408.02,-330.105,85.6134,1.70058
-1409.33,-328.602,85.4827,1.75833
-1410.76,-327.121,85.352,1.81288
-1412.29,-325.664,85.2214,1.86402
-1413.91,-324.236,85.0907,1.91153
-1410.89,-323.493,85.0907,2.01031
-1411.54,-321.306,85.0907,2.01031
-1412.2,-319.12,84.7058,2.01542
-1412.87,-316.94,84.3209,2.03012
-1413.56,-314.773,83.936,2.05353
-1414.3,-312.624,83.5511,2.0848
-1415.07,-310.501,83.1663,2.12311
-1415.9,-308.409,82.7814,2.16771
-1416.78,-306.357,82.3965,2.21785
-1417.72,-304.351,82.0116,2.27286
-1418.73,-302.399,81.6267,2.33206
-1419.8,-300.509,81.2418,2.39485
-1420.94,-298.687,80.8569,2.46064
-1422.14,-296.942,80.472,2.52887
-1423.39,-295.279,80.0871,2.59905
-1424.7,-293.705,79.7023,2.67067
-1426.06,-292.225,79.3174,2.7433
-1427.46,-290.843,78.9325,2.81652
-1428.89,-289.563,78.5476,2.88993
-1430.35,-288.386,78.1627,2.96318
-1431.83,-287.314,77.7778,3.03593
-1433.32,-286.347,77.3929,3.10789
-1434.81,-285.485,77.008,-3.1044
-1436.3,-284.725,76.6231,-3.03482
-1437.78,-284.064,76.2383,-2.96677
-1439.24,-283.501,75.8534,-2.90047
-1440.68,-283.03,75.4685,-2.83607
-1442.09,-282.647,75.0836,-2.77372
-1443.47,-282.348,74.6987,-2.71357
-1444.81,-282.127,74.3138,-2.6557
-1446.11,-281.98,73.9289,-2.60022
-1447.38,-281.9,73.544,-2.54717
-1448.6,-281.883,73.1591,-2.49662
-1449.78,-281.924,72.7743,-2.44858
-1450.91,-282.017,72.3894,-2.40308
-1452,-282.159,72.0045,-2.36009
-1453.05,-282.343,71.6196,-2.31961
-1454.06,-282.567,71.2347,-2.28159
-1455.02,-282.826,70.8498,-2.24599
-1455.95,-283.116,70.4649,-2.21273
-1456.84,-283.434,70.08,-2.18175
-1457.69,-283.778,69.6951,-2.15295
-1458.51,-284.144,69.3103,-2.12624
-1459.3,-284.529,68.9254,-2.1015
-1460.06,-284.933,68.5405,-2.07862
-1460.78,-285.352,68.1556,-2.05747
-1461.49,-285.785,67.7707,-2.03791
-1462.17,-286.23,67.3858,-2.01981
-1462.82,-286.686,67.0009,-2.00301
-1463.46,-287.153,66.616,-1.98737
-1464.07,-287.628,66.2311,-1.97272
-1464.66,-288.112,65.8463,-1.9589
-1465.24,-288.603,65.4614,-1.94576
-1465.8,-289.1,65.0765,-1.93312
-1466.34,-289.605,64.6916,-1.92082
-1466.87,-290.115,64.3067,-1.90868
-1467.37,-290.631,63.9218,-1.89657
-1467.87,-291.153,63.5369,-1.88446
-1468.34,-291.681,63.152,-1.87235
-1468.8,-292.213,62.7671,-1.86024
-1469.24,-292.751,62.3823,-1.84813
-1469.66,-293.294,61.9974,-1.83602
-1470.07,-293.841,61.6125,-1.8239
-1470.46,-294.393,61.2276,-1.81179
-1470.83,-294.948,60.8427,-1.79968
-1471.19,-295.508,60.4578,-1.78757
-1471.52,-296.072,60.0729,-1.77546
-1471.85,-296.639,59.688,-1.76335
-1472.15,-297.21,59.3031,-1.75124
-1472.43,-297.784,58.9183,-1.73912
-1472.7,-298.361,58.5334,-1.72701
-1472.95,-298.94,58.1485,-1.7149
-1473.19,-299.522,57.7636,-1.70279
-1473.4,-300.107,57.3787,-1.69068
-1473.6,-300.693,56.9938,-1.67857
-1473.78,-301.282,56.6089,-1.66646
-1473.95,-301.872,56.224,-1.65434
-1474.09,-302.463,55.8391,-1.64223
-1474.22,-303.056,55.4543,-1.6316
-1474.34,-303.65,55.0694,-1.62486
-1474.44,-304.244,54.6845,-1.62178
-1474.55,-304.838,54.2996,-1.62213
-1474.66,-305.432,53.9147,-1.62566
-1474.78,-306.025,53.5298,-1.63215
-1474.91,-306.618,53.1449,-1.64139
-1475.05,-307.21,52.76,-1.65316
-1475.21,-307.8,52.3751,-1.66728
-1475.4,-308.388,51.9903,-1.68356
-1475.61,-308.973,51.6054,-1.70184
-1475.85,-309.555,51.2205,-1.72195
-1476.11,-310.132,50.8356,-1.74375
-1476.42,-310.703,50.4507,-1.76708
-1476.75,-311.267,50.0658,-1.79182
-1477.12,-311.823,49.6809,-1.81784
-1477.53,-312.37,49.296,-1.84502
-1477.98,-312.905,48.9111,-1.87327
-1478.47,-313.428,48.5262,-1.90249
-1478.99,-313.937,48.1414,-1.93257
-1479.56,-314.43,47.7565,-1.96344
-1480.18,-314.906,47.3716,-1.99503
-1480.83,-315.362,46.9867,-2.02726
-1481.53,-315.798,46.6018,-2.06007
-1479.2,-316.328,46.6018,-2.14338
-1480.18,-317.561,46.6018,-2.14338
-1481.16,-318.793,46.3853,-2.14574
-1482.15,-320.022,46.1689,-2.15263
-1483.14,-321.247,45.9524,-2.16375
-1484.14,-322.463,45.7359,-2.17881
-1485.16,-323.669,45.5194,-2.19753
-1486.2,-324.863,45.303,-2.21966
-1487.25,-326.041,45.0865,-2.24492
-1488.33,-327.202,44.87,-2.27308
-1489.43,-328.342,44.6535,-2.30389
-1490.56,-329.459,44.4371,-2.33713
-1491.72,-330.551,44.2206,-2.37257
-1492.9,-331.615,44.0041,-2.41
-1494.11,-332.649,43.7877,-2.44922
-1495.34,-333.65,43.5712,-2.49003
-1496.6,-334.616,43.3547,-2.53225
-1497.89,-335.545,43.1382,-2.5757
-1499.2,-336.434,42.9218,-2.62021
-1500.54,-337.282,42.7053,-2.66561
-1501.9,-338.087,42.4888,-2.71175
-1503.28,-338.847,42.2723,-2.75849
-1504.68,-339.56,42.0559,-2.80568
-1506.09,-340.226,41.8394,-2.8532
-1507.52,-340.844,41.6229,-2.90091
-1508.96,-341.412,41.4064,-2.94871
-1510.41,-341.93,41.19,-2.99647
-1511.87,-342.398,40.9735,-3.0441
-1513.33,-342.816,40.757,-3.0915
-1514.8,-343.184,40.5406,-3.13858
-1516.26,-343.502,40.3241,3.09793
-1517.73,-343.771,40.1076,3.05174
-1519.19,-343.991,39.8911,3.00611
-1520.64,-344.164,39.6747,2.9611
-1522.08,-344.29,39.4582,2.91677
-1523.52,-344.37,39.2417,2.87317
-1524.94,-344.406,39.0252,2.83037
-1526.35,-344.399,38.8088,2.78839
-1527.74,-344.351,38.5923,2.74728
-1529.12,-344.263,38.3758,2.70707
-1530.48,-344.136,38.1593,2.66779
-1531.82,-343.973,37.9429,2.62946
-1533.14,-343.775,37.7264,2.5921
-1534.43,-343.543,37.5099,2.55573
-1535.71,-343.28,37.2935,2.52035
-1536.97,-342.986,37.077,2.48597
-1538.21,-342.664,36.8605,2.4526
-1539.42,-342.315,36.644,2.42022
-1540.61,-341.941,36.4276,2.38884
-1541.78,-341.542,36.2111,2.35844
-1542.92,-341.121,35.9946,2.32901
-1544.05,-340.679,35.7781,2.30054
-1545.15,-340.217,35.5617,2.27299
-1546.23,-339.736,35.3452,2.24636
-1547.28,-339.238,35.1287,2.22061
-1548.32,-338.724,34.9122,2.19571
-1549.33,-338.194,34.6958,2.17163
-1550.33,-337.651,34.4793,2.14834
-1551.3,-337.093,34.2628,2.1258
-1552.25,-336.524,34.0464,2.10387
-1553.18,-335.94,33.8299,2.07422
-1554.08,-335.341,33.6134,2.03934
-1554.95,-334.723,33.3969,1.9988
-1555.77,-334.086,33.1805,1.95308
-1556.55,-333.43,32.964,1.90268
-1557.27,-332.756,32.7475,1.84805
-1557.93,-332.066,32.531,1.78964
-1558.53,-331.362,32.3146,1.72787
-1559.07,-330.648,32.0981,1.66317
-1559.54,-329.928,31.8816,1.59591
-1559.93,-329.205,31.6651,1.52649
-1560.25,-328.486,31.4487,1.45526
-1560.49,-327.776,31.2322,1.38258
-1560.66,-327.08,31.0157,1.30877
-1560.75,-326.405,30.7993,1.23414
-1560.76,-325.757,30.5828,1.15901
-1560.71,-325.14,30.3663,1.08365
-1560.58,-324.56,30.1498,1.00835
-1560.38,-324.023,29.9334,0.933351
-1560.12,-323.534,29.7169,0.858906
-1559.8,-323.095,29.5004,0.785245
-1559.43,-322.712,29.2839,0.712583
-1559,-322.386,29.0675,0.641126
-1558.53,-322.121,28.851,0.571064
-1558.02,-321.918,28.6345,0.502576
-1557.48,-321.777,28.418,0.435828
-1556.91,-321.7,28.2016,0.370973
-1556.31,-321.686,27.9851,0.308153
-1555.69,-321.734,27.7686,0.247499
-1555.06,-321.844,27.5522,0.18913
-1554.41,-322.013,27.3357,0.133152
-1553.76,-322.24,27.1192,0.0796641
-1553.1,-322.522,26.9027,0.0287509
-1552.44,-322.857,26.6863,-0.0195114
-1551.79,-323.241,26.4698,-0.0650572
-1551.13,-323.673,26.2533,-0.107831
-1550.48,-324.148,26.0368,-0.147787
-1549.84,-324.663,25.8204,-0.184888
-1549.2,-325.216,25.6039,-0.219106
-1548.57,-325.803,25.3874,-0.250424
-1547.95,-326.421,25.1709,-0.278831
-1547.33,-327.066,24.9545,-0.304325
-1546.52,-325.342,24.9545,-0.405454
-1545.78,-325.59,24.9545,-0.405454
-1545.04,-325.84,25.2049,-0.408534
-1544.3,-326.094,25.4554,-0.417397
-1543.57,-326.357,25.7058,-0.4315
-1542.84,-326.632,25.9563,-0.450316
-1542.11,-326.923,26.2067,-0.473345
-1541.4,-327.232,26.4572,-0.500104
-1540.7,-327.562,26.7077,-0.530133
-1540.01,-327.915,26.9581,-0.562991
-1539.34,-328.291,27.2086,-0.598259
-1538.68,-328.693,27.459,-0.635536
-1538.05,-329.12,27.7095,-0.674441
-1537.43,-329.573,27.9599,-0.714612
-1536.84,-330.052,28.2104,-0.755705
-1536.27,-330.556,28.4608,-0.797395
-1535.72,-331.084,28.7113,-0.839376
-1535.2,-331.635,28.9618,-0.881381
-1534.71,-332.209,29.2122,-0.923376
-1534.24,-332.804,29.4627,-0.965371
-1533.81,-333.419,29.7131,-1.00737
-1533.4,-334.052,29.9636,-1.04936
-1533.03,-334.703,30.214,-1.09136
-1532.68,-335.37,30.4645,-1.13335
-1532.37,-336.052,30.7149,-1.17535
-1532.09,-336.748,30.9654,-1.21734
-1531.84,-337.455,31.2159,-1.25934
-1531.63,-338.174,31.4663,-1.30133
-1531.45,-338.901,31.7168,-1.34333
-1531.3,-339.637,31.9672,-1.38532
-1531.19,-340.379,32.2177,-1.42732
-1531.11,-341.126,32.4681,-1.46853
-1531.07,-341.876,32.7186,-1.50749
-1531.06,-342.629,32.969,-1.54424
-1531.07,-343.382,33.2195,-1.57887
-1531.12,-344.135,33.47,-1.61146
-1531.19,-344.887,33.7204,-1.6421
-1531.29,-345.637,33.9709,-1.67085
-1531.4,-346.385,34.2213,-1.69781
-1531.55,-347.131,34.4718,-1.72303
-1531.71,-347.873,34.7222,-1.74661
-1531.89,-348.612,34.9727,-1.7686
-1532.08,-349.347,35.2231,-1.78908
-1532.3,-350.079,35.4736,-1.80813
-1532.52,-350.807,35.724,-1.8258
-1532.77,-351.532,35.9745,-1.84216
-1533.02,-352.253,36.225,-1.85728
-1533.29,-352.971,36.4754,-1.87121
-1533.56,-353.685,36.7259,-1.88403
-1533.85,-354.397,36.9763,-1.89578
-1534.14,-355.105,37.2268,-1.90653
-1534.45,-355.81,37.4772,-1.91634
-1534.76,-356.513,37.7277,-1.92524
-1535.08,-357.214,37.9781,-1.93331
-1535.4,-357.912,38.2286,-1.94059
-1535.73,-358.608,38.4791,-1.94713
-1536.06,-359.302,38.7295,-1.95298
-1536.4,-359.995,38.98,-1.95819
-1536.74,-360.685,39.2304,-1.96281
-1537.09,-361.375,39.4809,-1.96687
-1537.44,-362.063,39.7313,-1.97042
-1537.79,-362.75,39.9818,-1.9735
-1538.14,-363.437,40.2322,-1.97616
-1538.49,-364.122,40.4827,-1.97842
-1538.85,-364.807,40.7332,-1.98034
-1539.21,-365.491,40.9836,-1.98194
-1539.57,-366.175,41.2341,-1.98327
-1539.93,-366.858,41.4845,-1.98435
-1540.29,-367.541,41.735,-1.98521
-1540.65,-368.224,41.9854,-1.98589
-1541.01,-368.906,42.2359,-1.98642
-1541.37,-369.589,42.4863,-1.98683
-1541.73,-370.271,42.7368,-1.98715
-1542.09,-370.953,42.9873,-1.98739
-1542.46,-371.635,43.2377,-1.98759
-1542.82,-372.317,43.4882,-1.98777
-1543.18,-372.999,43.7386,-1.98795
-1543.54,-373.681,43.9891,-1.98816
-1543.91,-374.363,44.2395,-1.98842
-1544.27,-375.044,44.49,-1.98874
-1544.63,-375.726,44.7404,-1.98915
-1545,-376.407,44.9909,-1.98966
-1545.36,-377.088,45.2413,-1.99028
-1545.73,-377.769,45.4918,-1.99104
-1546.09,-378.45,45.7423,-1.99195
-1546.46,-379.13,45.9927,-1.99303
-1546.83,-379.81,46.2432,-1.99427
-1547.19,-380.49,46.4936,-1.99571
-1547.56,-381.169,46.7441,-1.99734
-1547.93,-381.847,46.9945,-1.99918
-1548.31,-382.525,47.245,-2.00123
-1548.68,-383.202,47.4954,-2.00351
-1549.06,-383.878,47.7459,-2.00602
-1549.43,-384.553,47.9964,-2.00876
-1549.81,-385.227,48.2468,-2.01175
-1550.19,-385.9,48.4973,-2.01499
-1550.58,-386.572,48.7477,-2.01848
-1550.97,-387.243,48.9982,-2.02222
-1551.36,-387.912,49.2486,-2.02621
-1551.75,-388.58,49.4991,-2.03047
-1552.15,-389.246,49.7495,-2.03498
-1552.55,-389.91,50,-2.03975
