-100,-100,0,-0.00371455,8.46966E-05,-5.93898E-07,1.29333E-09,-0.00494775,0.000146668,-1.23626E-06,3.14486E-09,167.235,58.7515,55.639
-100,-100,30,-0.00308174,5.78848E-05,-0.000000328,5.79967E-10,0.00144012,-1.55865E-05,7.64744E-08,-1.46868E-10,100.121,85.3738,235.441
-100,-100,60,-0.00408106,0.000100854,-7.26116E-07,1.58804E-09,0.00112365,-4.69182E-05,4.17743E-07,-0.000000001,70.9519,54.4479,130.213
-100,-100,90,0.00276492,-4.71881E-05,2.48728E-07,-3.77849E-10,-0.00342281,0.000105098,-8.7319E-07,2.1471E-09,168,50.3356,138.838
-100,-100,120,-0.00462648,0.000134986,-1.29775E-06,4.06289E-09,-0.00641171,0.000246802,-2.70135E-06,8.9235E-09,89.5569,81.6988,39.9914
-100,-100,150,-0.00404555,0.000101874,-8.17474E-07,0.000000002,-0.00372735,0.000117179,-1.00521E-06,2.55993E-09,105.825,57.507,37.2276
-100,-100,180,0.00257921,-4.18225E-05,0.000000224,-3.96994E-10,-0.00346904,0.000108152,-9.12129E-07,2.27642E-09,181.468,51.4455,37.3966
-100,-100,210,-0.0031013,5.75335E-05,-2.94213E-07,6.01935E-10,-2.85048E-05,1.35659E-06,-1.96892E-08,8.93388E-11,83.7974,116.082,0.104635
-100,-100,240,-0.00337004,0.000070156,-4.53645E-07,9.07888E-10,0.00366244,-8.47646E-05,0.000000657,-1.6169E-09,212,75.4826,43.6617
-100,-100,270,0.00272249,-4.72712E-05,2.83588E-07,-6.01872E-10,0.000406804,1.17739E-05,-2.43099E-07,8.83683E-10,149.511,64.9406,51.7017
-100,-100,300,0.00236898,-3.45082E-05,1.55248E-07,-2.35074E-10,-0.00307088,5.73175E-05,-3.1592E-07,5.60077E-10,168.834,0,197.694
-100,-100,330,-0.00353641,7.76216E-05,-5.3931E-07,1.16683E-09,-0.00171399,5.64095E-05,-4.60174E-07,1.07343E-09,104.573,0.937416,135.194
-95,-100,0,-0.00336108,7.07694E-05,-4.87758E-07,1.11438E-09,-0.00494776,0.000146668,-1.23626E-06,3.14486E-09,204,36.8514,6.38383
-95,-100,30,-0.00285105,5.02067E-05,-2.50565E-07,3.76855E-10,-0.000950274,2.38902E-05,-1.41171E-07,2.34661E-10,98.1882,12.9216,188.191
-95,-100,60,-0.00314927,0.000070679,-4.87296E-07,0.000000001,-0.00187832,2.57715E-05,-1.53112E-07,3.32957E-10,88.7061,82.0715,214.654
-95,-100,90,-0.00321104,7.53511E-05,-5.57664E-07,1.27751E-09,-0.00177625,0.00002252,-1.23778E-07,2.74361E-10,132.235,32.8416,189.117
-95,-100,120,-0.00271924,5.24686E-05,-3.10254E-07,5.63397E-10,-0.00346964,7.21252E-05,-4.26323E-07,7.60515E-10,157.929,0,60.4393
-95,-100,150,-0.00382083,9.00853E-05,-6.60651E-07,1.50017E-09,0.00193585,-4.58959E-05,4.22789E-07,-1.25446E-09,189.429,93.1043,41.8393
-95,-100,180,-0.00408643,0.000104127,-8.49196E-07,2.16436E-09,-0.000144827,-2.46966E-05,3.54178E-07,-1.14749E-09,91.0451,66.9086,34.5818
-95,-100,210,-0.00311397,6.15993E-05,-3.6375E-07,6.56374E-10,-2.77886E-17,4.76051E-19,-2.5545E-21,4.33664E-24,96.6536,100.633,0
-95,-100,240,-0.00337757,7.06353E-05,-4.63264E-07,0.000000001,0.00263009,-7.87681E-05,6.16474E-07,-1.41061E-09,170.865,8.23458,18.2195
-95,-100,270,-0.00292277,5.13904E-05,-2.58615E-07,3.98006E-10,-0.00167342,2.62755E-05,-1.51467E-07,2.81533E-10,168.501,64.2776,102
-95,-100,300,-0.00436836,0.000114329,-8.50824E-07,1.91092E-09,0.003898,-9.21601E-05,6.38328E-07,-1.36897E-09,84.8914,0,218.243
-95,-100,330,-0.00360082,8.20409E-05,-5.83337E-07,1.28487E-09,0.00223616,-7.12333E-05,5.71237E-07,-1.32357E-09,147.229,0,147.78
-90,-100,0,-0.00342412,0.000073477,-5.14825E-07,1.18935E-09,0.0018082,-1.22669E-05,-1.09494E-07,6.45627E-10,204,105.765,127.978
-90,-100,30,-0.00235703,3.95353E-05,-1.84929E-07,2.58955E-10,0.0024656,-3.66161E-05,1.54549E-07,-1.96843E-10,71.9531,17.8995,281.777
-90,-100,60,0.00279111,-4.86869E-05,2.76708E-07,-5.22588E-10,-0.00269665,7.58588E-05,-5.7224E-07,1.27098E-09,114.18,75.0114,149.186
-90,-100,90,0.00246122,-3.82704E-05,1.99753E-07,-3.56324E-10,0.00163002,-1.38943E-05,4.68074E-09,9.13684E-11,134.303,58.5775,250
-90,-100,120,-0.00242732,4.26716E-05,-2.18773E-07,3.39534E-10,-0.00293933,5.18236E-05,-2.59839E-07,3.93224E-10,114.382,36.0818,67.5539
-90,-100,150,-0.00399372,9.88899E-05,-7.73289E-07,1.88156E-09,-0.00311044,8.07802E-05,-5.73233E-07,1.20815E-09,113.436,35.2174,43.8872
-90,-100,180,-0.00227723,0.000031316,-1.23559E-07,1.41635E-10,0.00340005,-0.000069261,4.01182E-07,-7.01312E-10,296,19.8564,8.7858
-90,-100,210,0.00263665,-4.45616E-05,2.63192E-07,-5.52394E-10,4.16251E-19,-2.15655E-19,2.75697E-21,-8.50297E-24,167.546,95.0181,0
-90,-100,240,-0.00351629,7.62207E-05,-5.10086E-07,1.05278E-09,-0.00511391,0.000156684,-0.000001365,3.58906E-09,190.065,15.7812,66
-90,-100,270,-0.00318954,6.25247E-05,-3.76942E-07,7.01162E-10,7.72154E-05,5.43334E-06,-7.71314E-08,2.10035E-10,144.581,3.73463,53.6385
-90,-100,300,-0.00259417,4.46506E-05,-2.34868E-07,3.79734E-10,0.00161762,-3.78668E-05,2.2254E-07,-3.7757E-10,169.543,0,52.5765
-90,-100,330,-0.00308187,0.000059346,-3.70078E-07,7.74721E-10,0.00212903,-2.74683E-05,0.000000104,-1.27935E-10,185.681,0,138.741
-85,-100,0,-0.00386528,9.24664E-05,-6.92283E-07,1.64253E-09,-0.000380649,-2.53617E-05,3.78509E-07,-1.21138E-09,148.376,20.8967,112.066
-85,-100,30,0.00240976,-3.56383E-05,1.60851E-07,-2.23483E-10,-0.00193287,2.81448E-05,-1.13486E-07,1.36614E-10,104.307,23.9999,292.142
-85,-100,60,0.00270247,-4.57207E-05,2.53216E-07,-4.65982E-10,-0.00235213,6.66736E-05,-4.94686E-07,1.07202E-09,124,59.842,152.005
-85,-100,90,0.00232366,-0.000033134,1.45582E-07,-1.97501E-10,0.00156377,-1.42854E-05,3.17796E-08,-1.06175E-11,264,25.2855,171.436
-85,-100,120,-0.00279688,5.59825E-05,-3.44757E-07,6.52631E-10,-0.00361332,7.82224E-05,-4.81509E-07,8.94531E-10,150.616,0,58.7739
-85,-100,150,-0.00411468,0.000105174,-8.52122E-07,2.15485E-09,-0.00376317,0.000120127,-1.04565E-06,2.70141E-09,114.144,36.1071,37.6052
-85,-100,180,-0.00415512,0.000107427,-8.83514E-07,2.26608E-09,0.00374818,-9.94549E-05,8.74466E-07,-2.42198E-09,166.71,86.9291,56.1157
-85,-100,210,-0.00257152,2.93928E-05,0.000000153,-1.50884E-09,-0.00347669,6.25429E-05,1.22116E-07,-4.08264E-09,80.4093,106.588,2.03385
-85,-100,240,-0.00401493,0.000100948,-8.1707E-07,2.07464E-09,0.00279001,-0.000091914,8.09514E-07,-2.10733E-09,99.0623,49.622,35.8933
-85,-100,270,-0.00183339,2.94538E-05,-1.47504E-07,2.26519E-10,-0.00137367,9.83861E-06,-2.07981E-09,-4.8452E-11,285.632,118.702,204
-85,-100,300,-0.00306966,5.75666E-05,-3.2313E-07,5.55165E-10,0.000312574,8.37536E-06,-9.94364E-08,2.3122E-10,88.9234,0,123.447
-85,-100,330,-0.00175638,2.71575E-05,-1.29403E-07,1.88461E-10,-0.00272612,4.45256E-05,-2.06787E-07,2.89838E-10,222.071,0,93.0274
-80,-100,0,-0.00325681,6.34381E-05,-3.36738E-07,4.80927E-10,0.00368008,-0.000104016,1.24522E-06,-5.2937E-09,77.3113,71.5423,111.563
-80,-100,30,-0.00259545,5.67694E-05,-3.98442E-07,8.66047E-10,-0.00298262,5.32678E-05,-2.67196E-07,3.93971E-10,118.559,75.2613,78.6653
-80,-100,60,-0.00399413,9.56717E-05,-6.52918E-07,1.34546E-09,0.000387819,-3.07676E-05,2.93247E-07,-7.1504E-10,74.5981,38.2291,131.849
-80,-100,90,-0.0033248,6.90128E-05,-4.62104E-07,0.000000001,0.00269713,-4.99235E-05,3.67224E-07,-9.29605E-10,153.524,48.8602,192.174
-80,-100,120,-0.00450427,0.000125502,-0.000001099,0.000000003,-0.0021132,3.04693E-05,-1.79081E-07,4.36798E-10,121.363,21.6637,156.747
-80,-100,150,-0.00389612,9.34342E-05,-6.96333E-07,1.60656E-09,-0.00359604,8.97024E-05,-6.25855E-07,1.3089E-09,94.3464,43.2773,47.182
-80,-100,180,-0.00295459,5.41899E-05,-2.81518E-07,4.40644E-10,-0.00249108,4.62614E-05,-2.38204E-07,3.66399E-10,104.995,34.0405,47.7608
-80,-100,210,-0.00397533,9.82593E-05,-7.71911E-07,1.89079E-09,-2.48288E-16,6.51791E-18,-5.07661E-20,1.21735E-22,92.9722,85.9127,0
-80,-100,240,-0.0031584,6.07635E-05,-3.47894E-07,6.46593E-10,-0.00378767,9.17773E-05,-7.63372E-07,0.000000002,178.473,66.1585,66
-80,-100,270,-0.00404842,0.000102506,-8.46083E-07,2.23768E-09,0.00476275,-0.000155943,1.42972E-06,-3.93058E-09,105.237,40,38.562
-80,-100,300,0.00278504,-4.94573E-05,3.01893E-07,-6.4489E-10,-0.00313723,5.85206E-05,-2.95945E-07,4.00156E-10,191.608,0,162.698
-80,-100,330,0.00146676,-1.80644E-05,0.000000071,-8.64165E-11,0.00227942,-0.000031129,1.2088E-07,-1.41665E-10,282.742,0,126.715
-75,-100,0,-0.00306501,6.81175E-05,-4.75396E-07,0.000000001,0.00176217,-1.52005E-05,-0.000000017,2.15193E-10,114.149,105.564,218.65
-75,-100,30,-0.00261306,0.000052532,-3.25233E-07,6.17874E-10,-0.0011149,4.28567E-06,3.17037E-08,-1.112E-10,218,0,200.401
-75,-100,60,0.00261014,-4.22701E-05,2.18341E-07,-3.74278E-10,-0.00244014,6.46808E-05,-4.61484E-07,0.000000001,115.534,59.8195,156.155
-75,-100,90,-0.00414224,0.000105304,-8.24517E-07,0.000000002,-0.00209263,2.27403E-05,-5.91404E-09,-2.6623E-10,160,2.99745,123.537
-75,-100,120,-0.00274265,5.57846E-05,-3.14826E-07,5.30837E-10,0.000488506,-1.70131E-05,1.25536E-07,-2.48372E-10,77.5825,0.00182515,134.769
-75,-100,150,-0.00415928,0.000107826,-8.6882E-07,2.16664E-09,-0.0047736,0.00013818,-1.13579E-06,2.81593E-09,163.958,34.5234,72
-75,-100,180,-0.0041155,0.000105456,-8.62758E-07,2.24441E-09,-0.00277884,0.000107521,-1.05428E-06,0.000000003,136.554,34.5621,4.60448
-75,-100,210,0.00190303,-2.14608E-05,6.51867E-08,-6.77865E-11,1.29844E-16,-3.00849E-18,2.19951E-20,-5.14817E-23,144.901,116.929,0
-75,-100,240,-0.00322409,6.29089E-05,-0.000000356,6.31093E-10,-0.00378445,9.21494E-05,-7.81531E-07,2.13702E-09,155.416,79.2003,70
-75,-100,270,-0.00415286,0.000108197,-9.17683E-07,2.44637E-09,0.00290563,-6.20742E-05,3.52736E-07,-5.38073E-10,100.752,28.0873,51.4032
-75,-100,300,-0.00298565,5.55812E-05,-3.17525E-07,5.60642E-10,0.00155873,-3.89373E-05,2.4755E-07,-4.58311E-10,145.536,0.115678,62.7537
-75,-100,330,0.000918951,-5.96708E-06,1.60865E-08,-1.53588E-11,-0.00119025,9.76135E-06,-2.84132E-08,2.67921E-11,341.507,0,243.484
-70,-100,0,-0.00438578,0.000118624,-1.00217E-06,2.62528E-09,-0.000951073,-1.32782E-05,3.26624E-07,-1.21403E-09,118.287,46.9401,102.732
-70,-100,30,0.00157666,-1.98901E-05,7.93394E-08,-9.77485E-11,0.00232198,-3.23024E-05,1.27779E-07,-1.52547E-10,295.578,0,131.616
-70,-100,60,-0.00276962,6.05462E-05,-4.10302E-07,8.54193E-10,-0.0018295,0.000024439,-1.41289E-07,2.98846E-10,94.9263,60,220.291
-70,-100,90,-0.00159274,2.80008E-05,-1.58613E-07,2.75606E-10,-0.000721082,-4.82182E-07,3.49041E-08,-7.80963E-11,248.316,8.80518E-06,246
-70,-100,120,-0.00392075,9.44524E-05,-6.98793E-07,1.59446E-09,0.0032485,-6.32053E-05,3.457E-07,-5.5683E-10,52.6406,6.42357,209.057
-70,-100,150,-0.00444632,0.000122334,-1.06308E-06,0.000000003,-0.00454118,0.000172718,-1.79423E-06,5.53526E-09,71.4229,70.8109,33.3013
-70,-100,180,-0.00361824,8.16472E-05,-5.93335E-07,1.42266E-09,0.00525937,-0.000165724,1.48486E-06,-0.000000004,189.367,3.67248,64
-70,-100,210,-0.00383868,9.20765E-05,-7.13168E-07,1.80382E-09,-0.00501098,0.000153615,-1.36767E-06,3.71316E-09,188,111.079,5.94944
-70,-100,240,-0.00475433,0.000141758,-0.000001388,4.34593E-09,0.00268873,-6.29175E-05,3.6009E-07,-3.93286E-10,72.8225,61.134,36.796
-70,-100,270,-0.00373295,0.000085836,-6.1143E-07,1.34692E-09,-0.00502391,0.000151218,-1.29425E-06,3.34313E-09,175.237,18.7599,64.5717
-70,-100,300,-0.00277973,4.64363E-05,-2.19267E-07,3.08745E-10,0.00185773,-1.96299E-05,0.000000041,3.80156E-11,158,0,198.842
-70,-100,330,-0.0014378,1.65125E-05,-5.21234E-08,4.89779E-11,-0.000345511,-1.5678E-06,1.41727E-08,-1.87392E-11,211.74,0,43.5271
-65,-100,0,-0.0032525,6.61574E-05,-4.36933E-07,0.000000001,0.000825822,1.65773E-05,-0.00000035,1.26178E-09,198,92.1975,132.132
-65,-100,30,0.00248401,-3.83067E-05,1.87086E-07,-2.84591E-10,-0.00148306,2.93403E-05,-1.60642E-07,2.5891E-10,122.613,3.9514,189.279
-65,-100,60,-0.00380345,8.66711E-05,-5.61589E-07,1.0982E-09,0.00281283,-4.91708E-05,0.000000273,-4.72618E-10,13.7049,45.8027,187.949
-65,-100,90,-0.00360971,9.08575E-05,-0.000000705,1.68389E-09,0.00144246,-5.01111E-06,-1.14771E-07,4.97129E-10,112.353,24.8879,201.428
-65,-100,120,-0.00477457,0.000140513,-1.29031E-06,3.67279E-09,0.00331304,-0.000116926,1.16594E-06,-3.45895E-09,58.6104,19.5973,107.171
-65,-100,150,0.00257248,-4.27595E-05,2.54214E-07,-5.50472E-10,-0.00501832,0.000150881,-1.28991E-06,3.32814E-09,158.698,62,46.6939
-65,-100,180,-0.0042959,0.000114592,-9.64839E-07,2.52711E-09,-0.00457566,0.000125648,-0.000000981,2.3113E-09,158.68,3.62017,77.2831
-65,-100,210,0.00226266,-3.19532E-05,1.45281E-07,-2.16557E-10,-0.00281037,5.45891E-05,-2.99931E-07,4.96446E-10,238.625,9.49949,5.99927
-65,-100,240,-0.00345397,0.000072549,-4.50629E-07,9.01905E-10,-0.00433763,0.000121955,-1.21969E-06,0.000000004,155.282,71.5393,68
-65,-100,270,-0.00300235,5.48719E-05,-2.98792E-07,5.28761E-10,0.00492543,-0.000147505,1.30159E-06,-3.49983E-09,163.38,4.22035,90
-65,-100,300,-0.00345085,7.34856E-05,-4.89392E-07,0.000000001,0.00306264,-7.97027E-05,5.65416E-07,-1.19031E-09,133.803,0,50.0764
-65,-100,330,0.00166831,-1.94816E-05,7.2121E-08,-8.65304E-11,-0.00252688,3.82549E-05,-1.64679E-07,2.13948E-10,303.344,0,97.039
-60,-100,0,-0.00230841,3.49558E-05,-0.000000153,2.02662E-10,0.00139719,-2.63804E-05,1.26519E-07,-1.75804E-10,137.655,33.0141,74.8546
-60,-100,30,-0.00227925,3.69803E-05,-0.000000185,2.84739E-10,0.00129875,-1.25368E-05,5.34001E-08,-8.46965E-11,166,4,305.04
-60,-100,60,-0.00363073,8.38906E-05,-5.47544E-07,1.07552E-09,0.000933396,-3.86825E-05,3.12666E-07,-6.88158E-10,76.9763,11.988,145.677
-60,-100,90,0.00280586,-5.02238E-05,3.0989E-07,-6.54319E-10,0.000685165,-0.000039741,4.13655E-07,-1.14121E-09,112.348,0.635768,209.026
-60,-100,120,-0.00550402,0.000181501,-1.70187E-06,4.81606E-09,0.00486137,-0.000145374,1.33957E-06,-3.81087E-09,38.3001,28.8159,114.938
-60,-100,150,-0.00463182,0.000133129,-1.20564E-06,3.39467E-09,-0.00402783,9.71431E-05,-0.000000649,1.23337E-09,148.421,5.86997,86
-60,-100,180,-0.0042697,0.000113424,-9.59122E-07,2.53012E-09,-0.00338265,0.000117946,-1.09128E-06,0.000000003,100.962,32.7015,28.8936
-60,-100,210,0.00224472,-3.14476E-05,1.41909E-07,-2.1038E-10,-0.00258071,5.30753E-05,-3.00113E-07,5.0521E-10,237.711,8.81519,6
-60,-100,240,0.00245229,-3.75022E-05,0.000000185,-2.93874E-10,-0.000478467,8.67471E-06,-4.71282E-08,7.89142E-11,139.624,48.2672,60.6927
-60,-100,270,-0.00407011,0.000103478,-8.49874E-07,2.22407E-09,0.00517771,-0.000162245,0.000001444,-3.87664E-09,127.213,0,38.3942
-60,-100,300,-0.0033253,6.80179E-05,-4.30319E-07,8.41521E-10,0.00157525,-3.29001E-05,1.7406E-07,-2.63449E-10,123.188,0,59.3231
-60,-100,330,-0.00453155,0.00012303,-9.49788E-07,2.21288E-09,0.00393731,-9.44609E-05,6.80762E-07,-1.52781E-09,79.6121,0,210.17
-55,-100,0,0.00252525,-3.95478E-05,1.94685E-07,-2.94111E-10,0.00151277,-0.000014548,4.93888E-08,-7.53099E-11,232,0,210.781
-55,-100,30,-0.00233631,4.74966E-05,-3.03149E-07,5.94673E-10,-0.0019448,2.62156E-05,-1.42633E-07,2.69635E-10,196,0,271.785
-55,-100,60,-0.0036652,8.08812E-05,-5.12847E-07,0.000000001,-0.00235137,0.000060933,-4.1614E-07,8.32874E-10,82.282,6.07396,166.331
-55,-100,90,-0.0032396,7.97577E-05,-5.89563E-07,1.32804E-09,0.0016772,-1.35038E-05,-2.04983E-08,1.99327E-10,87.1646,23.2237,221.91
-55,-100,120,-0.00453816,0.000133169,-1.22387E-06,3.48634E-09,-0.00244273,3.19061E-05,-3.70636E-08,-3.48089E-10,134,18.1223,108.553
-55,-100,150,-0.00460555,0.000132385,-1.22268E-06,3.57962E-09,-0.005549,0.00019539,-1.94409E-06,5.82216E-09,89.5312,36.6175,37.637
-55,-100,180,-0.00366918,8.38125E-05,-6.16796E-07,1.5078E-09,0.00547812,-0.000179797,0.000001678,-4.72602E-09,180.125,8.58468,60.4633
-55,-100,210,0.00286661,-5.58338E-05,4.33096E-07,-1.28373E-09,-0.00287306,0.000139734,-1.65871E-06,5.63807E-09,147.372,94.0723,6.43326
-55,-100,240,0.00245048,-3.77093E-05,1.9161E-07,-3.23353E-10,0.000583342,-2.97903E-05,2.42379E-07,-5.20878E-10,170.952,35.0477,40.2985
-55,-100,270,-0.00468515,0.000137548,-1.30991E-06,3.91604E-09,0.000984103,1.85211E-05,-4.85873E-07,0.000000002,59.9582,30.9156,71.3418
-55,-100,300,-0.00375814,8.70057E-05,-6.22881E-07,1.37831E-09,-0.0048953,0.000143574,-1.19735E-06,0.000000003,176.147,7.99218E-07,67.0195
-55,-100,330,9.73205E-05,-1.07183E-06,3.59695E-09,-3.77176E-12,0.00107463,-1.15328E-05,4.07538E-08,-4.57927E-11,1.17661E-05,0,343.702
-50,-100,0,0.00217611,-2.84693E-05,1.05865E-07,-1.18789E-10,0.0011822,-7.9903E-06,1.13662E-08,1.86365E-12,155.213,0,131.154
-50,-100,30,0.00251033,-3.94207E-05,2.00613E-07,-3.32211E-10,0.00345955,-7.17072E-05,4.22625E-07,-7.51737E-10,215.676,5.97364,67.5605
-50,-100,60,-0.00118328,1.58328E-05,-5.54222E-08,5.6741E-11,-0.000187763,-3.59853E-06,2.23706E-08,-2.87316E-11,115.244,18.3463,277.189
-50,-100,90,-0.00373546,8.46557E-05,-5.67534E-07,1.18646E-09,-0.003595,9.81452E-05,-7.41252E-07,1.67068E-09,91.0074,6.39255,153.157
-50,-100,120,-0.00274451,4.51281E-05,-0.000000211,2.97733E-10,0.00140335,-1.90625E-05,9.05338E-08,-1.36003E-10,24.3041,0,180.877
-50,-100,150,-0.00251887,4.46958E-05,-2.39939E-07,3.95503E-10,0.00317701,-0.000060472,3.27296E-07,-5.34618E-10,161.797,31.9998,85.6691
-50,-100,180,-0.00438282,0.000119526,-1.03644E-06,2.83374E-09,-0.000870387,6.52964E-05,-7.87919E-07,2.51688E-09,134.975,4.70368,15.5061
-50,-100,210,-0.00481486,0.000145488,-1.44225E-06,4.59148E-09,0.00159348,-6.37374E-05,7.09709E-07,-2.37103E-09,78.0295,53.9033,21.2808
-50,-100,240,-0.00361728,7.96816E-05,-5.22124E-07,1.11008E-09,-0.00413185,0.000107204,-9.10907E-07,2.52918E-09,165.835,57.5648,58.8676
-50,-100,270,-0.00446705,0.000125508,-0.000001161,3.47135E-09,0.00596315,-0.000216417,0.00000223,-6.9311E-09,104.424,17.3517,34.5321
-50,-100,300,-0.00390593,9.53022E-05,-7.47686E-07,1.83602E-09,0.00469353,-0.00013356,1.07924E-06,-2.63047E-09,106.788,12.5356,47.0524
-50,-100,330,-0.00452796,0.000126744,-1.11348E-06,0.000000003,0.00283715,-0.000111172,1.10245E-06,-3.16394E-09,124.304,0,123.409
-45,-100,0,-0.00197685,2.81966E-05,-1.71607E-07,3.7761E-10,0.00317182,-6.17222E-05,3.39261E-07,-5.57276E-10,228.864,44,72.5822
-45,-100,30,0.0018302,-2.18698E-05,7.37823E-08,-7.48685E-11,0.00196104,-2.30405E-05,0.000000077,-7.76098E-11,381.22,0,149.34
-45,-100,60,-0.00331907,0.000074693,-4.71434E-07,8.92823E-10,0.00179807,-4.75722E-05,3.28425E-07,-6.58473E-10,69.9988,4.45052E-07,160.447
-45,-100,90,-0.00434803,0.000113466,-8.4179E-07,1.88461E-09,0.00167296,-0.000062394,0.000000539,-1.31423E-09,67.0534,0,132.01
-45,-100,120,-0.00319229,7.84662E-05,-5.32633E-07,1.07822E-09,0.00218368,-2.75599E-05,0.00000008,-1.46718E-11,77.8708,0,217.607
-45,-100,150,-0.00475985,0.000140712,-1.31612E-06,3.86122E-09,-0.0030969,6.45705E-05,-3.33254E-07,3.24442E-10,85.9177,18.8224,54.5161
-45,-100,180,0.00253431,-4.13336E-05,0.000000238,-4.87247E-10,-0.00472739,0.000159043,-1.49212E-06,4.19079E-09,174.692,38.4718,40.1331
-45,-100,210,-0.00496863,0.000154619,-1.57446E-06,5.13187E-09,0.0033682,-0.000164642,2.01954E-06,-7.15066E-09,67.7877,44.9203,36.5952
-45,-100,240,-0.00361774,7.97016E-05,-5.22316E-07,1.11062E-09,-0.00448836,0.000127264,-1.20635E-06,3.62902E-09,172.366,53.1137,52.7727
-45,-100,270,-0.00463568,0.000134826,-1.28912E-06,3.94003E-09,0.00503233,-0.000156073,1.37364E-06,-3.6511E-09,99.7512,13.9703,38.425
-45,-100,300,-0.00392036,9.59427E-05,-7.53638E-07,1.85182E-09,0.00456871,-0.000131182,1.06546E-06,-2.60584E-09,104.917,10.4918,46.4561
-45,-100,330,0.00281825,-5.09023E-05,3.19343E-07,-6.57467E-10,-0.00236147,5.58832E-05,-4.0492E-07,8.91375E-10,124.717,0,129.672
-40,-100,0,-0.00195562,3.56851E-05,-2.04368E-07,3.58802E-10,-0.00326128,6.37227E-05,-0.000000354,5.93638E-10,182.073,0,79.7863
-40,-100,30,-0.000582664,4.11656E-06,-7.8224E-09,4.64111E-12,0.00132782,-1.05632E-05,2.38948E-08,-1.63128E-11,706.815,0,298
-40,-100,60,-0.00347205,7.57797E-05,-4.67835E-07,8.69705E-10,0.00292475,-5.14753E-05,2.57374E-07,-3.87794E-10,53.0319,6.50072E-09,242.401
-40,-100,90,-0.00241796,5.27035E-05,-3.10634E-07,5.41709E-10,0.00222396,-2.95514E-05,1.07635E-07,-1.08336E-10,86.1694,0,244.57
-40,-100,120,-0.00460535,0.000128971,-1.02556E-06,2.45974E-09,0.00281196,-8.16172E-05,6.84486E-07,-1.71819E-09,51.5152,0.00224617,133.579
-40,-100,150,-0.00486232,0.000146806,-1.40452E-06,4.18573E-09,-0.00528716,0.000168368,-1.52378E-06,4.16142E-09,90.1189,22.3096,42.0872
-40,-100,180,-0.00161548,2.28242E-05,-9.06148E-08,1.1321E-10,-0.00289762,5.03039E-05,-2.48319E-07,3.69943E-10,221.523,41.2891,47.7984
-40,-100,210,-0.00399116,9.90133E-05,-7.64209E-07,1.8262E-09,-0.00270959,0.000089816,-7.69084E-07,1.91817E-09,124.951,2.99139,19.3484
-40,-100,240,-0.00421897,0.000110455,-9.14433E-07,2.3606E-09,-3.15998E-16,8.8487E-18,-7.34323E-20,1.87388E-22,98.924,47.4596,0
-40,-100,270,-0.00374751,8.67149E-05,-0.000000626,1.44703E-09,0.00141587,-0.000067815,6.80489E-07,-1.88495E-09,132.609,0,18.5178
-40,-100,300,-0.0040663,0.000103542,-8.53585E-07,2.20884E-09,0.0045391,-0.000124096,9.64358E-07,-2.26127E-09,101.279,7.99997,47.9234
-40,-100,330,-0.00290854,6.24317E-05,-4.16345E-07,8.5525E-10,-0.00390735,9.14706E-05,-6.08878E-07,1.2232E-09,173.294,0,74.1623
-35,-100,0,-0.00264915,4.82773E-05,-3.50624E-07,8.77741E-10,-0.00448496,0.000131031,-1.07857E-06,2.66898E-09,202.319,0,134.94
-35,-100,30,-0.000560158,1.88865E-06,-1.80455E-09,5.17178E-13,-7.00498E-05,-5.10463E-07,1.19036E-09,-5.74366E-13,708.312,0,283.213
-35,-100,60,-0.00208822,0.000026126,-9.29434E-08,9.97887E-11,-0.00111077,0.000015373,-5.47923E-08,5.68241E-11,6.76456,0,291.554
-35,-100,90,-0.00328232,6.48712E-05,-3.64358E-07,6.17471E-10,0.00253451,-4.06663E-05,2.19207E-07,-3.75672E-10,29.0185,0,188.042
-35,-100,120,0.00242704,-3.49013E-05,1.33627E-07,-1.28633E-10,0.000928835,-1.62006E-05,6.09474E-08,-4.55726E-11,102,0,223.488
-35,-100,150,-0.00325972,0.000070261,-5.62561E-07,1.49448E-09,-0.00418873,0.000106421,-7.95141E-07,1.86976E-09,46.4202,0,188.41
-35,-100,180,0.00278251,-5.25034E-05,3.9341E-07,-1.12941E-09,-0.00290097,6.75174E-05,-3.90364E-07,4.82807E-10,146.334,53.9999,51.2076
-35,-100,210,-0.00519106,0.000166447,-1.67225E-06,5.21459E-09,0.0034363,-0.000142724,0.000001588,-5.18302E-09,54.3987,44.1087,43.9866
-35,-100,240,-0.00473737,0.000140268,-1.35139E-06,4.17367E-09,-0.000260032,5.22414E-05,-7.70879E-07,2.87016E-09,84.5662,28.022,29.1749
-35,-100,270,-0.00409488,0.000104389,-8.51915E-07,2.2541E-09,0.00303904,-0.000124807,1.30194E-06,-3.93496E-09,118.761,0,26.4933
-35,-100,300,-0.00414879,0.000108286,-9.28728E-07,2.51181E-09,0.00324909,-6.53375E-05,3.49895E-07,-4.78157E-10,95.7959,0,58.2159
-35,-100,330,-0.00368019,8.42135E-05,-6.11927E-07,1.39138E-09,0.00442491,-0.000117308,8.84299E-07,-0.000000002,114.082,0,53.822
-30,-100,0,-0.00436475,0.000116774,-9.58582E-07,2.42646E-09,-0.00284544,5.55649E-05,-4.31196E-07,1.15157E-09,158.592,0,193.763
-30,-100,30,-0.0025005,4.32912E-05,-2.27858E-07,3.67666E-10,0.00246604,-4.89977E-05,2.67297E-07,-4.339E-10,146.061,0,76.269
-30,-100,60,0.00392892,-9.24836E-05,0.000000619,-1.25045E-09,0.00377364,-8.59312E-05,5.63338E-07,-1.12396E-09,7.59568,0,246.157
-30,-100,90,0.00352667,-7.45155E-05,4.4769E-07,-8.11757E-10,0.00334917,-0.000067981,4.02431E-07,-7.25888E-10,6.25276,0,273.148
-30,-100,120,-0.00443776,0.00011799,-0.000000892,0.000000002,-0.00386037,9.00147E-05,-6.09553E-07,1.28599E-09,26.8986,0,219.111
-30,-100,150,-0.00395679,9.41213E-05,-6.32806E-07,1.26884E-09,-0.00479323,0.000138478,-1.14065E-06,2.85347E-09,87.9336,0,146.8
-30,-100,180,-0.00480313,0.000143634,-1.37049E-06,4.15322E-09,-0.00469663,0.000185114,-1.99228E-06,6.36694E-09,105.101,4.62555,31.5879
-30,-100,210,-0.00587049,0.000219385,-2.79758E-06,1.20954E-08,0.00504304,-0.000281068,4.7218E-06,-2.39271E-08,55.1358,41.0979,42.1904
-30,-100,240,-0.00381229,8.85335E-05,-0.000000612,1.37386E-09,-0.00481024,0.000146206,-1.48742E-06,4.80446E-09,161.976,58.8916,45.8911
-30,-100,270,-0.0032813,6.50366E-05,-3.71114E-07,6.54771E-10,0.00514114,-0.000160209,1.45743E-06,-4.19537E-09,140.589,16.9977,70
-30,-100,300,-0.00404482,0.000101953,-8.21111E-07,2.06562E-09,0.00419044,-0.000121801,9.96627E-07,-2.46107E-09,103.772,0,44.8968
-30,-100,330,-0.00143519,1.05988E-05,5.25564E-08,-3.25269E-10,0.00238111,-7.66175E-05,6.26215E-07,-1.48292E-09,142.122,0,51.6336
-25,-100,0,-0.00445285,0.000121484,-1.0143E-06,2.60943E-09,-0.0020567,0.000031367,-2.15716E-07,5.91335E-10,166.372,0,188
-25,-100,30,-0.00257275,5.87557E-05,-4.19853E-07,9.20586E-10,-0.00131947,1.10272E-05,-3.33382E-08,5.5154E-11,178,0,219.772
-25,-100,60,-0.00205636,2.53348E-05,-8.87532E-08,9.38359E-11,-0.00129138,1.85731E-05,-0.00000007,7.73307E-11,5.98112,0,276.642
-25,-100,90,-0.000883668,1.05394E-05,-3.19361E-08,2.80398E-11,-0.0004856,8.28065E-07,4.50923E-09,-7.65577E-12,124,0,275.251
-25,-100,120,-0.00377489,8.53739E-05,-0.000000549,1.06557E-09,0.00266422,-4.90945E-05,3.06374E-07,-6.07606E-10,24.4944,0,160.27
-25,-100,150,-0.00311008,8.49589E-05,-7.64744E-07,2.14599E-09,-0.00250233,3.77518E-05,-1.6354E-07,2.18003E-10,124,0,121.475
-25,-100,180,0.00311114,-0.00006926,0.00000066,-2.38651E-09,0.00361986,-0.000174388,2.26465E-06,-8.61392E-09,134.382,27.9181,83.7578
-25,-100,210,-0.00501292,0.000156973,-1.5969E-06,5.20946E-09,-0.000164765,-4.50985E-05,8.47775E-07,-3.64068E-09,75.8733,33.6358,25.5864
-25,-100,240,-0.00314128,6.87444E-05,-4.62138E-07,0.000000001,8.92595E-18,-2.72457E-19,2.08386E-21,-4.59657E-24,136.231,7.04897,0
-25,-100,270,-0.00473364,0.000140963,-1.38613E-06,4.49516E-09,0.00511539,-0.00023008,2.80766E-06,-1.01498E-08,97.0737,13.6016,25.7764
-25,-100,300,-0.00357569,7.81139E-05,-0.000000516,1.09996E-09,-0.000639254,-0.000019512,3.45167E-07,-1.16552E-09,131.826,0,15.5769
-25,-100,330,-0.0028252,4.51892E-05,-1.41768E-07,-1.32757E-10,0.00279143,-4.26676E-05,8.94917E-08,3.92827E-10,129.729,0,103.788
-20,-100,0,-0.00303401,5.50072E-05,-0.00000027,3.20892E-10,0.000671835,3.32117E-05,-6.79325E-07,2.79414E-09,91.2128,0.0817917,88.9894
-20,-100,30,-0.00330047,6.67274E-05,-0.000000405,7.60721E-10,-0.000702041,5.37655E-05,-6.11747E-07,1.82413E-09,92.6084,0.209966,118.785
-20,-100,60,-0.0035806,0.000078291,-5.0669E-07,0.000000001,-0.00188714,6.94244E-05,-6.07114E-07,1.51032E-09,86.1136,0.127039,140.961
-20,-100,90,-0.00339504,8.32999E-05,-5.70078E-07,1.16849E-09,0.00270686,-6.30665E-05,4.36083E-07,-9.13109E-10,51.1781,0.0510765,163.231
-20,-100,120,-0.00426413,0.000121931,-9.81368E-07,2.37454E-09,0.0029632,-8.46554E-05,0.000000706,-1.77018E-09,47.0578,0.0580461,135.666
-20,-100,150,-0.00447515,0.000133166,-1.11691E-06,2.81821E-09,-0.00109113,-7.28355E-06,2.5227E-07,-0.000000001,64.4306,0.0630499,96.9923
-20,-100,180,-0.0055865,0.000196798,-2.29663E-06,8.8675E-09,-0.00814951,0.000399237,-5.56226E-06,2.33916E-08,79.3911,26.3822,30.7004
-20,-100,210,-0.00507233,0.000160884,-1.6366E-06,5.20653E-09,-0.00328556,0.000149347,-1.72042E-06,5.73947E-09,78.5874,29.1077,25.032
-20,-100,240,-0.00292742,6.30213E-05,-4.19699E-07,8.63166E-10,-1.55763E-06,3.16366E-08,-1.95835E-10,3.78835E-13,138.801,3.17896,0.0475713
-20,-100,270,-0.00505078,0.000160412,-1.67555E-06,5.59091E-09,0.00565386,-0.000232266,2.65856E-06,-9.11085E-09,78.0857,23.4834,32.1429
-20,-100,300,-0.00396153,9.82235E-05,-7.80207E-07,0.000000002,0.00412115,-0.000122223,1.04667E-06,-2.73255E-09,91.0949,3.42808,50.4531
-20,-100,330,-0.0036997,8.62039E-05,-6.58316E-07,1.69208E-09,0.00424115,-0.000111518,8.51207E-07,-1.94143E-09,100.357,1.42917,60.5445
-15,-100,30,-0.0033107,6.69661E-05,-4.0466E-07,7.63869E-10,-0.000586548,5.43239E-05,-6.53932E-07,0.000000002,91.2229,0.0497753,114.235
-15,-100,60,-0.00356624,7.77793E-05,-5.04515E-07,0.000000001,-0.00155814,6.34196E-05,-5.76359E-07,1.46722E-09,86.1495,0.143361,137.828
-15,-100,90,-0.00276907,6.56233E-05,-4.38441E-07,8.77487E-10,0.00205433,-5.04908E-05,0.000000354,-7.39075E-10,50.3716,4.02759,134.79
-15,-100,120,-0.00516842,0.000184891,-2.11508E-06,7.57095E-09,-0.00275131,4.08698E-05,-5.02425E-08,-7.41625E-10,80.0649,21.3838,57.2824
-15,-100,150,-0.00458692,0.000146109,-1.40571E-06,4.18611E-09,0.00106686,-7.48872E-05,9.70337E-07,-3.37968E-09,59.9521,0.124301,96.1854
-15,-100,180,-0.00505459,0.000156762,-1.47262E-06,4.27879E-09,-0.0053372,0.000177402,-1.69779E-06,4.94306E-09,64.4089,28.9868,43.296
-15,-100,240,-0.00284545,6.12413E-05,-4.08637E-07,8.42191E-10,-1.50384E-06,3.05441E-08,-1.89073E-10,3.65753E-13,136.577,3.21577,0.0475766
-15,-100,270,-0.00522247,0.000171712,-1.84825E-06,6.27482E-09,0.00555436,-0.000229261,2.62622E-06,-0.000000009,73.9829,25.2206,31.3233
-15,-100,300,-0.00408668,0.000104579,-8.58249E-07,2.24541E-09,0.00419814,-0.000128503,1.13814E-06,-3.07624E-09,88.2395,3.54897,48.7813
-15,-100,330,-0.00367335,8.40253E-05,-6.06715E-07,1.39057E-09,0.0043702,-0.000120609,9.55513E-07,-2.29986E-09,98.9572,0.666433,57.3798
-10,-100,0,-0.00394428,9.36896E-05,-0.000000683,1.56023E-09,0.00363409,-9.54026E-05,7.34521E-07,-1.73454E-09,108.953,0.0091148,41.8043
-10,-100,30,-0.00310606,5.57048E-05,-2.22725E-07,3.61578E-12,-0.00269748,0.000148326,-1.91866E-06,0.000000007,91.0671,0.00756884,98.1544
-10,-100,60,-0.00357426,7.82294E-05,-5.11516E-07,0.000000001,-0.00128279,5.84146E-05,-5.51875E-07,1.43758E-09,85.816,0.158835,134.878
-10,-100,90,-0.00261937,5.99593E-05,-3.85627E-07,7.45591E-10,0.00202948,-4.84702E-05,3.2975E-07,-6.67524E-10,51.016,1.49352,137.73
-10,-100,120,-0.00391187,0.000122996,-1.27014E-06,4.27898E-09,-0.00323208,6.48944E-05,-4.3943E-07,0.000000001,71.01,34.4798,49.7738
-10,-100,150,-0.00517875,0.000171006,-0.00000164,4.80079E-09,0.00333003,-0.000123309,1.29071E-06,-0.000000004,45.1328,0.386009,109.437
-10,-100,180,-0.00365919,0.000103438,-9.38928E-07,2.67562E-09,-0.00404537,0.000134985,-1.27234E-06,3.61878E-09,92.9436,7.00981,40.5617
-10,-100,210,-0.00489382,0.000159262,-1.67815E-06,5.60191E-09,-0.00290222,0.000118761,-0.000001356,4.65213E-09,76.3061,23.3939,30.0878
-10,-100,240,-0.00255325,5.22648E-05,-3.30949E-07,6.46153E-10,-0.000001738,3.3308E-08,-1.94542E-10,3.55085E-13,138.896,0.752754,0.0423294
-10,-100,270,-0.00526825,0.000174357,-1.88688E-06,6.50179E-09,0.00464714,-0.00019463,2.27831E-06,-0.000000008,75.2449,21.9868,30.3284
-10,-100,330,-0.00375692,0.00008784,-6.47517E-07,1.51709E-09,0.00448898,-0.000127185,1.03538E-06,-2.56626E-09,95.6002,0.63133,55.8552
-5,-100,60,-0.00359928,7.94173E-05,-5.25544E-07,1.08692E-09,-0.00105143,5.42749E-05,-5.33129E-07,1.42099E-09,85.1347,0.172364,132.078
-5,-100,90,-0.00349533,8.97245E-05,-6.63785E-07,1.49225E-09,0.00323089,-0.000086254,6.65611E-07,-1.54683E-09,50.8696,0.190287,135.961
-5,-100,120,-0.00345348,8.93055E-05,-6.40529E-07,1.3725E-09,0.00300419,-6.57638E-05,4.57441E-07,-0.000000001,33.7914,0.0251132,159.769
-5,-100,180,-0.00604341,0.000226791,-2.68445E-06,9.88512E-09,0.00328634,-0.000167155,0.000002261,-8.89812E-09,50.6391,0.0484454,84.1257
-5,-100,210,-0.00596131,0.000223968,-2.76047E-06,1.10503E-08,-0.00429724,0.000212989,-3.00584E-06,1.28746E-08,62.6561,35.225,27.8157
-5,-100,240,-0.00559034,0.000198555,-2.32574E-06,8.88486E-09,0.000207362,-8.52886E-06,1.07801E-07,-4.27866E-10,73.6999,42.1004,8.6173
-5,-100,330,-0.00384932,0.000092239,-6.96199E-07,1.66689E-09,0.0045206,-0.000130152,0.000001077,-2.70951E-09,92.6767,0.123765,54.8067
0,-100,0,-0.003784,8.82295E-05,-6.33662E-07,1.43704E-09,0.00416858,-0.000123494,1.03082E-06,-2.59161E-09,103.216,0.142769,52.4685
0,-100,30,-0.00363409,8.20736E-05,-5.90256E-07,1.4062E-09,0.000589561,2.79973E-05,-5.13273E-07,1.90381E-09,90.2844,0.0212808,101.149
0,-100,60,-0.00356475,7.70816E-05,-4.8355E-07,9.30007E-10,-0.00106247,5.58666E-05,-5.56438E-07,1.5016E-09,82.2767,0.0380666,130.056
0,-100,120,-0.00316365,8.25136E-05,-5.42253E-07,4.94088E-10,0.000126754,-9.74606E-05,2.02971E-06,-1.0498E-08,59.6995,37.1716,72.6755
0,-100,150,-0.00471028,0.000145916,-0.000001312,3.5867E-09,0.00314748,-0.000109577,1.05507E-06,-0.000000003,46.312,0.477966,91.4542
0,-100,210,-0.00607204,0.000232406,-2.93021E-06,1.21163E-08,-0.00707163,0.000387485,-0.000005866,2.64959E-08,70.3135,27.6949,25.7328
0,-100,240,-0.00569445,0.000203139,-2.35305E-06,8.70918E-09,-0.0024852,0.000121573,-1.60873E-06,6.31751E-09,71.5238,42.4805,8.08217
0,-100,270,-0.00478636,0.00014127,-1.29438E-06,3.67055E-09,0.000872185,-4.08171E-05,4.41885E-07,-1.35756E-09,81.7516,34.3057,7.72109
0,-100,300,-0.00479389,0.000143946,-1.39034E-06,4.23109E-09,0.00492456,-0.000175461,1.7732E-06,-5.41657E-09,77.0653,11.0191,40.1007
0,-100,330,-0.00399333,9.93242E-05,-7.79068E-07,1.93965E-09,0.00465462,-0.000139056,1.19546E-06,-3.12668E-09,89.5486,0.676287,52.7954
5,-100,0,-0.00384405,9.06584E-05,-6.50062E-07,1.46115E-09,0.00374965,-0.000112121,9.30491E-07,-2.31141E-09,99.6683,0.197308,50.4233
5,-100,30,-0.00371695,8.59302E-05,-6.31742E-07,1.51426E-09,0.000930104,1.90579E-05,-4.53864E-07,1.80606E-09,89.377,0.139448,97.5542
5,-100,60,-0.00369757,8.39112E-05,-5.73829E-07,1.22923E-09,-0.000794978,0.000051961,-5.53756E-07,1.5644E-09,83.2435,0.191918,125.369
5,-100,90,-0.00240237,5.54127E-05,-3.47349E-07,6.5058E-10,0.00179952,-0.00004267,2.8228E-07,-5.53426E-10,48.7868,1.02417,142.105
5,-100,150,-0.00440028,0.000140556,-1.24985E-06,3.32509E-09,0.00347418,-0.000100967,8.96625E-07,-2.43206E-09,35.2776,0.0153331,126.4
5,-100,180,-0.00612485,0.000229172,-0.000002538,8.64353E-09,0.00340454,-0.000160698,2.03891E-06,-7.5704E-09,44.2565,0.463322,90.2754
5,-100,210,-0.00633929,0.000253278,-3.33863E-06,1.4492E-08,-0.00812898,0.000452253,-7.10238E-06,3.36112E-08,68.5415,27.6314,26.2557
5,-100,240,-0.00614242,0.000238042,-3.0337E-06,1.25354E-08,-0.00112906,5.00196E-05,-6.73586E-07,2.83156E-09,66.7492,37.4921,16.1509
5,-100,270,-0.00381406,9.89063E-05,-0.000000786,1.93141E-09,-0.000278297,6.82226E-06,-0.000000051,1.1944E-10,118.317,4.75859,2.62482
5,-100,300,-0.00545962,0.000187887,-2.12711E-06,7.73606E-09,0.00659803,-0.000273371,3.29268E-06,-1.21237E-08,72.8238,16.5283,34.9914
5,-100,330,-0.00438236,0.00011991,-1.04726E-06,2.89431E-09,0.00540116,-0.000177188,1.65726E-06,-4.68851E-09,89.5371,0.10429,47.3379
10,-100,0,-0.00402484,0.000100748,-7.89599E-07,0.000000002,0.00481924,-0.000145067,1.25141E-06,-3.27717E-09,96.953,0.3572,55.398
10,-100,30,-0.00383811,9.25587E-05,-0.000000677,1.52999E-09,0.00377199,-9.53983E-05,7.07462E-07,-1.60863E-09,105.089,0.728053,44.3536
10,-100,60,-0.00376299,8.69842E-05,-6.0732E-07,1.32935E-09,-0.000671544,5.01486E-05,-5.52709E-07,1.59502E-09,81.8023,0.200982,122.985
10,-100,90,-0.00335734,0.000084937,-0.000000608,1.31192E-09,0.0037349,-8.63944E-05,6.08436E-07,-1.31856E-09,36.5004,5.14247,140.692
10,-100,120,-0.00479449,0.000150671,-1.44936E-06,4.29611E-09,0.00531054,-0.000186439,1.84163E-06,-5.46571E-09,53.1438,0.582743,118.668
10,-100,150,-0.00331965,7.53505E-05,-5.08585E-07,1.05887E-09,0.00263633,-5.72231E-05,4.06196E-07,-9.00325E-10,22.9873,0.0712419,133.258
10,-100,210,-0.00665372,0.000278973,-3.84679E-06,1.73651E-08,-0.00890567,0.000503695,-8.0948E-06,3.93E-08,64.3868,30.7382,26.4201
10,-100,240,-0.00744165,0.000301297,-3.86743E-06,1.55353E-08,-0.00376491,0.000149278,-1.81938E-06,0.000000007,66.4093,34.3358,15.3787
10,-100,270,-0.00580053,0.000207987,-0.000002331,8.10256E-09,0.0036678,-0.000181912,2.29257E-06,-8.37215E-09,55.3362,43.5498,20.2964
10,-100,300,-0.0051488,0.000167259,-1.75973E-06,5.94441E-09,0.00433289,-0.000166237,1.88174E-06,-6.56145E-09,73.6219,11.3565,38.3997
10,-100,330,-0.00452071,0.000127096,-1.13049E-06,3.133E-09,0.00505791,-0.000164507,1.51068E-06,-4.17895E-09,85.8425,0.98021,47.039
15,-100,0,-0.0040696,0.000103022,-8.10859E-07,0.000000002,0.0044446,-0.00012932,1.07389E-06,-2.70262E-09,93.2201,0.357337,56.746
15,-100,30,-0.00383102,9.18349E-05,-6.76523E-07,1.54892E-09,0.00394765,-0.000108587,8.41325E-07,-0.000000002,107.856,0.672941,61.3808
15,-100,60,-0.00384165,9.07155E-05,-6.47883E-07,1.45093E-09,-0.000594727,4.94475E-05,-5.60379E-07,1.64856E-09,80.093,0.206822,120.806
15,-100,90,-0.00201708,4.50087E-05,-2.88382E-07,5.61411E-10,0.0022364,-5.31614E-05,3.65258E-07,-7.51436E-10,42.8334,10.5109,148.256
15,-100,120,-0.00369984,0.000115326,-1.21977E-06,4.09723E-09,0.00616715,-0.000235567,2.55088E-06,-8.3269E-09,62.2328,0.567406,109.201
15,-100,150,-0.00398938,0.000123381,-1.05323E-06,2.68069E-09,0.00348441,-9.40587E-05,7.85546E-07,-0.000000002,32.2067,0.00415789,134.36
15,-100,180,-0.00452944,0.000134882,-1.16071E-06,0.000000003,0.00351314,-9.03038E-05,7.76574E-07,-2.10856E-09,19.5459,0.903974,126.152
15,-100,210,-0.00719195,0.000326242,-4.87627E-06,2.37905E-08,-0.00984379,0.000589675,-1.00876E-05,5.22622E-08,58.8026,36.5544,25.6332
15,-100,240,-0.00682037,0.000293093,-0.000004136,1.88749E-08,-0.00246144,0.000136389,-2.15226E-06,1.03019E-08,56.3957,41.6045,20.0381
15,-100,270,-0.00559265,0.000194123,-2.10864E-06,7.1742E-09,0.00148714,-5.15648E-05,0.000000545,-1.80015E-09,61.8982,49.0922,7.38698
15,-100,300,-0.005689,0.000202682,-2.32473E-06,8.4509E-09,0.00533189,-0.000222709,2.68016E-06,-9.82419E-09,61.4483,25.6049,33.5054
15,-100,330,-0.00434015,0.000117346,-9.88103E-07,2.61242E-09,0.00397381,-0.00012535,1.12491E-06,-3.05882E-09,83.1576,0.000436637,50.1205
20,-100,0,-0.00416025,0.000107911,-8.67362E-07,2.17797E-09,0.0042956,-0.00012772,0.000001079,-2.7581E-09,91.579,0.00023937,55.7021
20,-100,30,-0.00406152,0.000102159,-7.76123E-07,1.82032E-09,0.00320549,-8.77715E-05,6.87435E-07,-1.63472E-09,99.8603,1.02877,48.0728
20,-100,60,-0.00393538,0.000095218,-6.96916E-07,1.59874E-09,-0.00057294,5.01136E-05,-0.000000579,1.73109E-09,78.0925,0.208309,118.885
20,-100,90,-0.00226595,5.15917E-05,-3.1825E-07,5.8278E-10,0.00188831,-4.50147E-05,2.8557E-07,-5.31588E-10,47.8561,0.29174,128.909
20,-100,120,-0.00387466,0.000114742,-9.42753E-07,2.31569E-09,0.0032691,-9.80094E-05,8.23205E-07,-2.06143E-09,47.2177,0.0702855,138.182
20,-100,150,-0.00445207,0.000147468,-1.35564E-06,3.72392E-09,0.00361345,-0.000116515,1.08534E-06,-0.000000003,39.5586,0.0157267,122.959
20,-100,180,-0.00476092,0.000142506,-1.21347E-06,3.12029E-09,0.00353895,-0.000088054,7.32894E-07,-1.92874E-09,17.7938,0.0214134,130.853
20,-100,210,-0.00656646,0.000261598,-2.9926E-06,1.03882E-08,0.00277219,-0.000132808,0.000001733,-6.5916E-09,39.8886,0.218345,84.3519
20,-100,240,-0.00704316,0.000312283,-4.53936E-06,2.13372E-08,-0.00450169,0.000278484,-4.6996E-06,2.36461E-08,58.2747,38.7288,20.4203
20,-100,270,-0.00609246,0.000236564,-3.00459E-06,1.25118E-08,-1.42034E-16,7.94738E-18,-1.29038E-19,6.36693E-22,67.8582,49.6388,0
20,-100,300,-0.00663374,0.000278191,-3.86807E-06,1.7542E-08,0.00840941,-0.000460587,0.000007217,-3.42989E-08,61.6972,30.7901,25.9507
20,-100,330,-0.00498038,0.000154501,-1.51663E-06,4.64975E-09,0.00516155,-0.000187332,1.91392E-06,-5.88666E-09,82.6916,3.20342,42.1061
25,-100,0,-0.00395896,9.81945E-05,-7.17824E-07,1.67345E-09,-0.0053241,0.000169844,-1.5407E-06,4.21811E-09,132.244,0,5.05748
25,-100,30,-0.00479477,0.000149941,-1.40886E-06,4.05E-09,-0.00136719,-1.8989E-06,2.41813E-07,-0.000000001,150.701,0,129.734
25,-100,60,-0.00281665,5.36723E-05,-0.000000283,4.34753E-10,0.00240286,-3.96228E-05,2.59636E-07,-5.85478E-10,145.1,0,231.273
25,-100,90,-0.00339501,7.40372E-05,-4.55616E-07,8.43436E-10,0.00356486,-7.62463E-05,4.65068E-07,-8.5675E-10,71.6422,0,205.639
25,-100,120,-0.00393849,9.29347E-05,-6.23555E-07,1.26267E-09,0.00112621,-9.59767E-06,-1.97967E-08,1.67439E-10,12.0762,3.53478E-07,245.181
25,-100,150,-0.00351718,7.50038E-05,-4.5419E-07,8.29584E-10,0.0019146,-3.77188E-05,2.37542E-07,-4.5926E-10,13.5531,0,159.379
25,-100,180,-0.00279685,7.19375E-05,-0.000000499,0.000000001,0.00148364,-3.37126E-05,2.45658E-07,-5.39906E-10,20.1734,0,129.563
25,-100,210,-0.00577841,0.000210245,-2.1634E-06,6.70275E-09,0.00405579,-0.000125147,1.26992E-06,-0.000000004,29.7536,0,93.9093
25,-100,240,-0.00744303,0.000353523,-5.44158E-06,2.62698E-08,-0.00444353,0.000321903,-5.73018E-06,2.92625E-08,56.8297,49.0404,11.5726
25,-100,270,-0.00694738,0.000301416,-4.23084E-06,0.000000019,0.00722751,-0.000352133,5.10908E-06,-2.28841E-08,53.5061,60.7068,2.30281
25,-100,300,-0.00700219,0.000307653,-4.40884E-06,0.00000002,0.00104015,3.09046E-05,-1.34961E-06,0.000000009,57.5759,20.3922,39.2908
25,-100,330,-0.00557891,0.000193084,-0.000002113,7.19823E-09,0.00549682,-0.000222252,2.49516E-06,-8.37209E-09,75.5833,13.8083,33.1781
30,-100,0,-0.0052204,0.000169522,-1.75625E-06,5.91535E-09,0.00716803,-0.000307835,3.7591E-06,-1.38538E-08,95.9439,0,35.4486
30,-100,30,-0.00202466,5.19415E-05,-4.97335E-07,1.51038E-09,0.00531478,-0.000169234,1.53229E-06,-4.18706E-09,86.051,0,129.83
30,-100,60,-0.0035357,7.52545E-05,-4.54753E-07,8.27133E-10,-0.00134442,5.73536E-05,-5.20789E-07,1.30971E-09,110.233,0,155.765
30,-100,90,-0.0029849,6.90955E-05,-4.41303E-07,8.40246E-10,0.00302864,-0.000055113,2.85142E-07,-4.45164E-10,37.361,0,237.269
30,-100,120,-0.00208059,5.84976E-05,-4.17772E-07,8.64447E-10,0.00172725,-4.40835E-05,3.16348E-07,-6.68088E-10,31.4337,15.6219,150.534
30,-100,150,-0.0033286,6.96932E-05,-4.12724E-07,7.35963E-10,0.00182453,-3.56453E-05,2.20155E-07,-4.15531E-10,13.3759,0,162.913
30,-100,180,-0.0036297,7.89336E-05,-4.88092E-07,9.10876E-10,-0.00275866,4.71458E-05,-2.55333E-07,4.44833E-10,8.21197,0,245.558
30,-100,210,-0.00413273,0.000102327,-7.20434E-07,1.53079E-09,-0.00316945,6.17291E-05,-3.69765E-07,7.10299E-10,11.9373,0,205.712
30,-100,240,-0.00778881,0.000382103,-6.23915E-06,3.38069E-08,-0.00599511,0.000353093,-5.52828E-06,2.52172E-08,54.0844,43.9031,18.9059
30,-100,270,-0.0072852,0.000330775,-0.000004836,2.33917E-08,2.24744E-06,-1.23327E-07,2.063E-09,-1.07865E-11,44.6333,71.9986,0.00470751
30,-100,300,-0.00772094,0.000376145,-6.12691E-06,3.31059E-08,0.00988211,-0.00070187,1.38895E-05,-8.22648E-08,54.1458,45.3928,17.1601
30,-100,330,-0.0060315,0.000226371,-2.70529E-06,1.00867E-08,0.00528742,-0.000203723,2.18264E-06,-0.000000007,70.6246,17.1365,33.6371
35,-100,0,-0.00558239,0.000193557,-2.13392E-06,7.8896E-09,-0.00336764,0.000259335,-0.000004582,2.28082E-08,59.5996,3.94016,66.9663
35,-100,30,-0.00435909,0.000117276,-9.79812E-07,2.53348E-09,-0.00318416,5.86752E-05,-2.50533E-07,8.00308E-11,136,0,144.225
35,-100,60,-0.00443945,0.00011808,-0.000000893,0.000000002,-0.00097604,4.68601E-05,-4.29462E-07,1.08299E-09,62.1134,0,146.634
35,-100,90,-0.00116335,2.53217E-05,-1.80811E-07,3.86803E-10,-0.000891977,3.60745E-06,4.73068E-09,-1.34022E-11,132,0,208.186
35,-100,120,-0.00135097,3.08191E-05,-1.71622E-07,2.73662E-10,0.000822254,-1.84866E-05,1.09412E-07,-1.84255E-10,39.4825,0,177.699
35,-100,150,1.05123E-07,-1.07195E-09,3.3312E-12,-3.23494E-15,-0.0012715,1.68009E-05,-6.04891E-08,6.43395E-11,0,0,297.887
35,-100,180,0.0020613,-2.54571E-05,8.9398E-08,-9.47473E-11,0.0019433,-2.34099E-05,0.000000082,-8.72362E-11,3.90638,0,271.609
35,-100,210,-0.00246068,3.62767E-05,-1.52072E-07,1.92393E-10,-0.000631691,9.26772E-06,-4.61794E-08,6.83109E-11,3.10588,0,143.602
35,-100,240,-0.00828892,0.000433467,-0.000007561,4.39465E-08,-0.000908271,-0.00008716,4.18428E-06,-3.76482E-08,51.3097,35.0448,31.2289
35,-100,270,-0.00767249,0.000369974,-5.90382E-06,3.12827E-08,-1.66864E-08,0.000000001,-1.72421E-11,9.55705E-14,50.3026,66.3356,0
35,-100,300,-0.00692674,0.000299448,-4.17608E-06,1.88471E-08,0.00929805,-0.000519032,8.2493E-06,-3.95968E-08,103.309,13.8462,0
35,-100,330,-0.00564386,0.000196076,-2.11805E-06,7.08423E-09,0.00224944,-6.24089E-05,4.02271E-07,-5.25738E-10,83.5872,0,38.867
40,-100,0,-0.00447439,0.000121092,-9.48422E-07,2.31805E-09,0.00391555,-9.41049E-05,6.96722E-07,-1.7587E-09,105.621,0,98.1087
40,-100,30,0.000758841,-2.81674E-05,2.13464E-07,-4.40358E-10,0.00290638,-5.07751E-05,2.52151E-07,-3.77768E-10,223.756,0,119.457
40,-100,60,-0.00446293,0.000119332,-9.07288E-07,2.08185E-09,-0.000647567,3.88511E-05,-3.68234E-07,9.42685E-10,60.7017,0,145.674
40,-100,90,-0.00230293,6.06506E-05,-4.17136E-07,8.38592E-10,-0.00373831,8.37274E-05,-5.33224E-07,0.000000001,65.7191,0,183.234
40,-100,120,-0.00141222,2.11404E-05,-9.61659E-08,1.36484E-10,-0.00165048,2.44215E-05,-9.97265E-08,1.20724E-10,9.08888E-06,0,257.065
40,-100,150,-0.00280395,6.19465E-05,-3.76829E-07,6.82832E-10,-0.000324557,1.70812E-05,-0.000000119,2.2679E-10,68,0,197.445
40,-100,180,0.00343692,-7.07713E-05,4.14375E-07,-7.3223E-10,0.00339846,-6.93393E-05,4.0344E-07,-7.10105E-10,9.92545,0,283.782
40,-100,210,-0.00570806,0.000237815,-2.75457E-06,9.5398E-09,0.00211006,-0.000112292,1.50494E-06,-5.72825E-09,36.8272,12.2659,79.2608
40,-100,240,-0.00821868,0.00041982,-6.80133E-06,3.49383E-08,-0.00440222,0.000371962,-7.4819E-06,4.27997E-08,70.2522,36.3574,12.7337
40,-100,270,-0.00795185,0.000394982,-6.37382E-06,0.000000033,0.00160679,-0.000212701,4.81076E-06,-2.91994E-08,54.9556,45.777,16.5148
40,-100,300,-0.00629301,0.000245964,-2.9951E-06,1.12973E-08,-1.30359E-16,4.58908E-18,-4.96073E-20,1.68776E-22,73.7879,44.8429,0
40,-100,330,-0.00720495,0.000324237,-4.69016E-06,2.12328E-08,0.00869,-0.000453762,6.73756E-06,-3.0201E-08,56.8605,37.1849,25.8633
45,-100,0,-0.00661725,0.000273702,-3.64623E-06,1.52123E-08,-0.00188068,0.00016621,-2.86005E-06,1.33759E-08,60.6295,0,69.1869
45,-100,30,-0.00476076,0.00013905,-1.23723E-06,3.38698E-09,0.00072866,2.21248E-05,-4.35901E-07,1.60881E-09,60.6628,0,92.0587
45,-100,60,-0.00334698,7.04647E-05,-4.19596E-07,7.52347E-10,0.00166145,-1.80859E-05,0.000000073,-1.11683E-10,70.1104,0,134.709
45,-100,90,-0.00262801,4.13785E-05,-1.85255E-07,2.50313E-10,-0.00177814,3.18014E-05,-1.51451E-07,2.12231E-10,2.84006,0,223.619
45,-100,120,-0.00285048,4.86804E-05,-2.36395E-07,3.46451E-10,0.00168517,-2.71255E-05,1.36324E-07,-2.09558E-10,14.1638,0,202.661
45,-100,150,-0.00238534,6.46741E-05,-4.58369E-07,9.49881E-10,-0.00254955,5.64946E-05,-3.46287E-07,6.50752E-10,60.127,0,201.972
45,-100,180,-0.00178353,0.000019059,-5.7913E-08,5.311E-11,0.00151762,-1.38312E-05,3.60547E-08,-2.869E-11,0.892485,0,426.016
45,-100,210,-0.00361283,0.000118985,-1.14541E-06,3.43694E-09,0.0021043,-1.45548E-05,-2.34695E-07,1.53311E-09,71.9713,23.9353,143.442
45,-100,240,-0.00857578,0.000458851,-7.95008E-06,4.42071E-08,-0.00894295,0.000542507,-0.000009228,4.7098E-08,44.9065,52.9973,21.6407
45,-100,270,-0.00819703,0.00041999,-6.95348E-06,3.65681E-08,-0.00580191,0.000442113,-8.60312E-06,4.85852E-08,50.9587,59.9711,7.26442
45,-100,300,-0.00822173,0.000422338,-7.05151E-06,3.7744E-08,0.00264276,-8.52577E-05,7.50791E-07,-1.36959E-09,48.5677,53.2247,16.4188
45,-100,330,-0.00685639,0.000303544,-4.75592E-06,2.58059E-08,0.0044811,-0.000124275,0.000001107,-0.000000004,86,54.239,74
50,-100,0,-0.00680246,0.000289159,-3.96873E-06,1.7306E-08,0.00251079,-4.17612E-06,-1.04606E-06,7.93912E-09,71.5918,5.85791,52.5183
50,-100,30,-0.00296432,6.48361E-05,-4.00661E-07,7.64704E-10,0.00262264,-4.97822E-05,4.04761E-07,-1.19364E-09,115.129,0,175.789
50,-100,60,-0.00399127,9.55415E-05,-6.5038E-07,1.33629E-09,-0.00127109,4.85867E-05,-4.00482E-07,9.16785E-10,93.6868,0,167.526
50,-100,90,-0.00214335,0.000038258,-1.95602E-07,3.20637E-10,0.00217964,-2.69136E-05,6.4739E-08,4.95526E-11,146,0,131.649
50,-100,120,-0.00172925,4.83169E-05,-3.32281E-07,6.55871E-10,0.00160563,-1.38813E-05,1.23998E-08,5.86247E-11,60.3568,0,264.632
50,-100,150,-0.00224428,6.80643E-05,-5.24337E-07,1.17031E-09,0.00221392,-5.73842E-05,4.30515E-07,-0.000000001,24.1004,13.7883,142.683
50,-100,180,-0.00221402,6.49498E-05,-4.85634E-07,1.05317E-09,0.00154472,-4.10248E-05,0.000000315,-7.11105E-10,28.5376,0,133.026
50,-100,210,-0.00411703,0.00012291,-1.02094E-06,2.53643E-09,0.00407298,-0.000099549,6.91766E-07,-1.45072E-09,28.3822,0,178.596
50,-100,240,-0.0091192,0.000519228,-9.54915E-06,5.60583E-08,-0.01,0.000636482,-1.14449E-05,6.19379E-08,41.2748,58.4816,21.3138
50,-100,270,-0.00841106,0.000442324,-7.53713E-06,4.15954E-08,-0.00614768,0.00051998,-1.11378E-05,6.90566E-08,60.4162,50.3124,8.7382
50,-100,300,-0.00848633,0.000449748,-7.65758E-06,0.000000041,0.0011578,4.81505E-05,-1.97524E-06,1.43507E-08,50.0497,53.4446,15.928
50,-100,330,-0.0083036,0.00043108,-7.28813E-06,3.94907E-08,0.00447618,-0.000140806,6.36485E-07,4.51468E-09,54.3137,35.646,31.2876
55,-100,0,-0.00758933,0.000361486,-5.67567E-06,2.9602E-08,-0.000172921,0.000198191,-5.80654E-06,0.000000041,48.1554,32.6996,47.8514
55,-100,30,-0.00481306,0.000138791,-0.000001138,2.81618E-09,-0.00283326,7.13387E-05,-0.000000486,0.000000001,1.9871,0,152.637
55,-100,60,-0.00166039,5.60198E-05,-4.44717E-07,0.000000001,-0.00364042,8.25677E-05,-5.33392E-07,1.05018E-09,43.9978,0,172.146
55,-100,90,-0.00432208,0.000127295,-1.05088E-06,2.60254E-09,-0.00252733,0.000090188,-8.11428E-07,2.11034E-09,59.782,0,128.975
55,-100,120,-0.000605595,1.09751E-05,-4.29439E-08,4.66812E-11,0.000280921,-5.65748E-06,2.48756E-08,-2.9337E-11,24.0361,0,231.395
55,-100,150,-0.000969227,3.52585E-05,-2.61679E-07,5.33284E-10,0.00205638,-2.55378E-05,9.16433E-08,-9.95939E-11,47.9997,0.00137364,271.533
55,-100,180,-0.00337389,6.81994E-05,-0.000000392,6.79979E-10,0.0014454,-3.01273E-05,1.9024E-07,-3.59073E-10,8.80416,2.53374,156.378
55,-100,210,-0.00417692,0.000104527,-7.43794E-07,1.59732E-09,0.00229082,-5.05958E-05,3.69396E-07,-8.38204E-10,11.9613,1.64275,127.318
55,-100,240,-0.00685186,0.000300122,-3.71158E-06,1.38109E-08,0.003879,-0.000166051,2.05267E-06,-7.57817E-09,34.9814,10.1652,79.8772
55,-100,270,-0.00896627,0.000502279,-9.10381E-06,5.26426E-08,-0.00431591,0.000233106,-3.08582E-06,1.04441E-08,46.7103,59.7002,14.5435
55,-100,300,-0.00865528,0.000467018,-0.000008124,4.52832E-08,0.00295994,-0.000021936,-1.42208E-06,0.000000015,54.9535,57.6743,8.26477
55,-100,330,-0.00766868,0.000364773,-5.46753E-06,2.57616E-08,0.00296226,-3.44808E-05,-7.72838E-07,8.08419E-09,74.0198,9.51853,39.1724
60,-100,0,-0.00665391,0.00026526,-3.00688E-06,1.02867E-08,-0.00243971,0.000129981,-1.71376E-06,6.43496E-09,43.6891,6.28233,81.7867
60,-100,30,-0.00598488,0.000214599,-0.000002188,6.73271E-09,-0.00148345,7.72743E-05,-0.000000853,2.70965E-09,44.8813,0,114.642
60,-100,60,-0.00402184,9.90449E-05,-6.91905E-07,1.45724E-09,-0.00160427,5.59706E-05,-4.52927E-07,0.000000001,91.9076,0,167.058
60,-100,90,-0.0030787,7.48303E-05,-5.57218E-07,1.31106E-09,0.00477183,-0.000136423,0.000001109,-2.72087E-09,129.964,0,55.7187
60,-100,120,-0.00108667,1.82463E-05,-0.000000076,9.11374E-11,0.00066909,-1.08108E-05,4.76127E-08,-6.02479E-11,19.1475,0,227.818
60,-100,150,-0.00328005,6.44584E-05,-3.60186E-07,6.07423E-10,0.00150441,-3.23462E-05,0.000000199,-3.6179E-10,6.5055,19.038,169.657
60,-100,180,-0.00289725,6.78491E-05,-4.59161E-07,9.36009E-10,0.00354744,-7.57968E-05,4.60281E-07,-8.43441E-10,28.2323,0,203.058
60,-100,210,-0.00399651,9.56938E-05,-6.51533E-07,1.33877E-09,0.00213167,-4.58434E-05,3.22933E-07,-7.03719E-10,11.5535,0.960844,132.131
60,-100,240,-0.00527239,0.000211848,-2.35381E-06,7.80324E-09,0.00319098,-0.000127962,0.000001494,-5.1974E-09,35.5251,10.4252,82.4765
60,-100,270,-0.00904729,0.000509812,-9.16778E-06,5.14733E-08,-0.00188833,1.75354E-05,1.1712E-06,-1.28594E-08,45.1967,54.5043,23.1587
60,-100,300,-0.00911074,0.000518163,-9.54968E-06,5.64171E-08,0.00660456,-0.00041041,7.71738E-06,-4.51783E-08,45.7857,76.0821,0.74952
60,-100,330,-0.0083392,0.000434854,-7.34083E-06,4.032E-08,0.01,-0.000701785,1.37536E-05,-8.07463E-08,63.9519,41.3264,18.3463
65,-100,0,-0.00898215,0.000505319,-9.20878E-06,5.2657E-08,0.00248721,3.37726E-05,-2.84077E-06,2.44193E-08,43.1695,44.5556,43.1469
65,-100,30,-0.00209748,7.04153E-05,-0.000000798,2.75089E-09,0.00583528,-0.00020454,2.03858E-06,-6.13149E-09,100.863,0,120.229
65,-100,60,-0.00506007,0.000168224,-1.5742E-06,4.4267E-09,-0.00283248,0.000113912,-1.16687E-06,3.46062E-09,53.0082,0.731662,111.523
65,-100,90,-0.00186132,3.02117E-05,-1.25133E-07,1.29262E-10,0.00319871,-6.15336E-05,3.36372E-07,-5.54502E-10,163.667,0,110
65,-100,120,-0.00183805,0.000030993,-1.88082E-07,3.65828E-10,0.00294203,-5.20373E-05,2.61603E-07,-3.96708E-10,36.3069,1.1421,242.164
65,-100,150,-0.000578338,1.33231E-05,-1.26248E-07,3.4174E-10,-0.00138009,1.19257E-05,-3.52956E-08,5.15485E-11,80,44,183.984
65,-100,180,-0.00221993,6.36017E-05,-4.66533E-07,0.000000001,0.00197691,-0.000048328,3.48877E-07,-7.53143E-10,27.4996,0,142.697
65,-100,210,-0.00324468,9.54192E-05,-7.58229E-07,1.7822E-09,-0.00358406,9.35896E-05,-6.79424E-07,1.47491E-09,68,0,162.27
65,-100,240,-0.00278081,7.83391E-05,-5.87057E-07,1.29401E-09,0.00184524,-4.28271E-05,3.22909E-07,-7.43862E-10,30.3887,0,104.242
65,-100,270,-0.0098048,0.000600409,-0.000011818,7.32862E-08,-0.00607077,0.000384747,-6.56155E-06,3.30804E-08,41.4159,66.9923,16.4613
65,-100,300,-0.01,0.000630719,-1.32579E-05,9.28847E-08,1.63754E-07,-1.25534E-08,2.93433E-10,-2.14433E-12,47.7309,76.8172,0
65,-100,330,-0.0085679,0.000457634,-7.85762E-06,4.37065E-08,0.01,-0.000709852,1.40523E-05,-8.32866E-08,65.4168,42.2192,17.7928
70,-100,0,-0.00937262,0.000549758,-1.04207E-05,6.1931E-08,0.00103148,0.000127186,-4.74465E-06,3.67364E-08,41.8962,46.5827,43.7501
70,-100,30,-0.0038105,9.90326E-05,-7.21393E-07,1.57635E-09,0.000951277,-1.90459E-06,-9.37505E-08,3.69385E-10,63.7404,0,93.4237
70,-100,60,-0.00287526,7.18184E-05,-5.52317E-07,1.2985E-09,0.00440672,-0.000116345,8.73435E-07,-0.000000002,97.8504,14,56.6106
70,-100,90,-0.0029482,6.24731E-05,-3.68729E-07,6.51201E-10,-0.00102766,3.37736E-05,-2.35804E-07,4.55786E-10,100.351,0,193.768
70,-100,120,-0.00263323,0.00008417,-8.03093E-07,2.29833E-09,-0.00252311,3.44913E-05,-0.000000054,-3.27155E-10,152.724,1.18396E-05,115.08
70,-100,150,0.00395223,-9.36011E-05,6.30383E-07,-1.28134E-09,-0.000916446,7.83792E-06,8.9468E-09,-9.56011E-11,0.159789,1.57507E-05,253.719
70,-100,180,-0.00262573,6.77763E-05,-4.67397E-07,9.49534E-10,-0.00269224,6.82828E-05,-4.68163E-07,9.48789E-10,71.3032,0,168.504
70,-100,210,-0.00254115,0.000079663,-6.4425E-07,1.51689E-09,0.00190593,-5.25776E-05,4.29579E-07,-0.000000001,30.5496,0,120.467
70,-100,240,-0.00499974,0.000175485,-1.72043E-06,5.05271E-09,0.00376861,-0.000090226,7.29454E-07,-1.87844E-09,21.2186,0.40379,112.679
70,-100,270,-0.00999995,0.000626187,-1.27747E-05,8.59449E-08,-0.0073673,0.000479707,-0.00000823,3.90733E-08,36.3996,73.5291,17.2737
70,-100,300,-0.00999907,0.000624668,-1.25745E-05,8.01503E-08,0.00198855,-0.000126398,2.46059E-06,-0.000000015,39.9853,83.5293,3.30441
70,-100,330,-0.00969215,0.000586479,-1.14102E-05,7.03175E-08,0.000715373,0.000100279,-4.30719E-06,3.71127E-08,46.8323,49.2018,31.4819
75,-100,0,-0.0094464,0.000557478,-1.05812E-05,6.28671E-08,-0.000208197,0.000189708,-5.72867E-06,4.16625E-08,41.6064,47.6912,44.7378
75,-100,30,-0.00482766,0.000170826,-1.87636E-06,6.34815E-09,0.0064397,-0.000248461,2.72583E-06,-0.000000009,81.1845,27.0597,37.92
75,-100,60,-0.0040946,0.000104441,-7.54243E-07,1.64092E-09,-0.00273644,8.48669E-05,-6.88326E-07,1.63262E-09,94.109,0,161.435
75,-100,90,-0.00211916,0.000051022,-3.21135E-07,5.91014E-10,0.00178185,-4.52295E-05,2.92112E-07,-5.46065E-10,61.8873,0,175.459
75,-100,120,-0.00249373,6.73479E-05,-0.000000479,0.000000001,0.0025209,-6.57558E-05,4.64139E-07,-0.000000001,51.441,3.876,158.442
75,-100,150,-0.00220161,2.90402E-05,-1.0892E-07,1.23291E-10,-0.000758715,1.29487E-05,-5.09033E-08,5.64295E-11,6.24708,0,273.829
75,-100,180,-0.00169563,5.57374E-05,-4.35283E-07,0.000000001,0.00393911,-9.32917E-05,6.32474E-07,-1.29745E-09,73.2827,0,245.19
75,-100,210,-0.00420191,0.000105782,-7.57223E-07,1.63589E-09,0.00125716,-1.32806E-05,-5.07437E-09,1.74824E-10,9.29268,0,227.756
75,-100,240,-0.00282051,0.000088121,-7.22578E-07,1.73477E-09,0.000888139,-3.61271E-05,3.52587E-07,-9.48351E-10,46.1122,0,93.8899
75,-100,270,-0.01,0.000621503,-0.000012228,7.45974E-08,-0.00999992,0.00073053,-1.47012E-05,8.67905E-08,36.8679,75.8852,17.0251
75,-100,300,-0.00990801,0.000611279,-1.20583E-05,7.57957E-08,0.00234069,-0.000151274,2.98356E-06,-1.84052E-08,49.7277,77.0384,2.52612
75,-100,330,-0.00999936,0.000620763,-1.22977E-05,8.07555E-08,0.00704564,-0.000420803,6.3076E-06,-2.18285E-08,32.5843,78.6432,18.4747
80,-100,0,-0.01,0.000615453,-1.16684E-05,6.96065E-08,-0.00387309,0.000403974,-9.3221E-06,6.00902E-08,30.6566,54.9165,50.3314
80,-100,30,-0.00221116,7.68971E-05,-9.01115E-07,3.21472E-09,0.00510631,-0.000156794,1.36815E-06,-3.60034E-09,94.3018,0,135.657
80,-100,60,-0.00441306,0.000116681,-8.77228E-07,0.000000002,-0.00173583,3.77726E-05,-2.05627E-07,3.04291E-10,2.5203,0,178.593
80,-100,90,-0.00309379,6.61667E-05,-0.000000396,7.1045E-10,-0.00195221,2.21103E-05,-5.90956E-08,1.64206E-11,71.2752,0,252.596
80,-100,120,0.000428842,-2.67454E-05,2.23069E-07,-4.81633E-10,0.00312337,-5.97761E-05,3.24521E-07,-5.31208E-10,70.6495,0,226.731
80,-100,150,-0.00184857,2.04734E-05,-6.44752E-08,6.12792E-11,0.000803974,-1.11928E-05,3.98953E-08,-4.09804E-11,10.3964,0,330.579
80,-100,180,-0.00297463,5.30132E-05,-2.68648E-07,4.10867E-10,-0.000651789,8.60941E-06,-2.11064E-08,4.8791E-13,2.75255,3.85165E-07,282.236
80,-100,210,-0.00999995,0.000656936,-1.31338E-05,8.06247E-08,-0.00515715,0.000132783,2.62874E-07,-1.38829E-08,53.5048,55.0287,38.4938
80,-100,240,-1.75099E-05,-2.08649E-05,2.08075E-07,-4.73417E-10,0.00482418,-0.000140348,1.1689E-06,-0.000000003,62.8675,0,163.833
80,-100,270,-0.01,0.000605806,-1.07169E-05,0.00000006,0.0045579,-0.000696707,2.43357E-05,-2.36531E-07,28.6644,72.9832,30.9536
80,-100,300,-0.00999983,0.000617611,-1.19915E-05,7.83858E-08,-1.31071E-05,-3.67846E-07,3.5412E-08,-4.39736E-10,31.4073,96.6045,3.91361
80,-100,330,-0.00766692,0.000352225,-4.60148E-06,1.8143E-08,0.00309146,-0.000101892,1.34226E-06,-5.82989E-09,3.34995,56.2443,77.8047
85,-100,0,-0.00699969,0.000295102,-3.53583E-06,1.2784E-08,0.005976,-0.000217012,2.32044E-06,-7.81118E-09,66,19.8031,132
85,-100,30,-0.00318876,0.000123164,-1.49456E-06,5.50564E-09,0.00548395,-0.000180844,1.6947E-06,-4.78949E-09,98.6937,0,127.755
85,-100,60,-0.00411772,0.000101585,-7.12615E-07,1.50868E-09,-0.00160844,0.00003663,-2.08459E-07,3.36408E-10,3.22435,1.5204E-09,179.814
85,-100,90,-0.00180659,3.23476E-05,-1.62798E-07,2.62438E-10,0.00213782,-3.23185E-05,2.03093E-07,-4.52402E-10,124,18.3091,225.536
85,-100,120,-0.000783584,1.91232E-05,-1.23162E-07,2.24436E-10,0.00212817,-2.71066E-05,9.53743E-08,-9.4722E-11,96.3311,0,262.45
85,-100,150,-0.000911729,-4.59724E-06,0.000000136,-4.19756E-10,0.000639827,1.04639E-05,-1.71599E-07,4.85388E-10,69.9451,66.734,249.6
85,-100,180,-0.00147592,5.56486E-05,-4.69879E-07,1.11131E-09,0.00176862,-1.76117E-05,3.22666E-08,3.51007E-11,42,44.1232,240
85,-100,210,-0.00223314,0.000066626,-5.1547E-07,1.15995E-09,-0.00129948,3.3336E-06,9.88548E-08,-3.84723E-10,66.4122,0,95.2871
85,-100,240,-0.00563664,0.000190426,-1.8294E-06,5.30426E-09,0.00314163,-6.28669E-05,4.28211E-07,-9.29365E-10,12.6475,0.668401,131.326
85,-100,270,-0.01,0.000607422,-1.07292E-05,5.04006E-08,-0.01,0.000667245,-1.13852E-05,4.34224E-08,31.1399,85.871,18.497
85,-100,300,-0.00999986,0.000616118,-1.16471E-05,6.64069E-08,-0.00432061,0.000405709,-1.10083E-05,0.000000091,32.8735,95.91,5.99178
85,-100,330,-0.01,0.000619157,-1.20031E-05,7.17507E-08,-0.00244567,0.000422757,-1.48944E-05,1.40622E-07,47.9872,59.126,27.8668
90,-100,0,-0.00741808,0.000338744,-4.47547E-06,1.79214E-08,-0.00464849,0.000219734,-3.01542E-06,1.24046E-08,42.8535,26.003,73.4301
90,-100,30,-0.00394593,0.000123663,-0.000001066,2.73624E-09,-0.00118855,0.000056946,-5.90615E-07,1.68575E-09,51.8551,0,105.611
90,-100,60,-0.00212581,4.86314E-05,-3.55111E-07,7.94289E-10,0.00236627,-3.63275E-05,0.000000144,-1.31741E-10,102,0,80.8289
90,-100,90,-0.00130308,3.19835E-05,-2.82172E-07,7.58378E-10,0.00382958,-0.000109188,8.63374E-07,-0.000000002,87.0033,0,145.439
90,-100,120,-0.00188057,4.77915E-05,-3.08502E-07,5.76985E-10,0.00120876,-3.73554E-05,2.5876E-07,-5.02102E-10,63.48,2.97765,166.046
90,-100,150,-0.00305455,5.59002E-05,-2.90889E-07,4.56835E-10,0.00162786,-3.18607E-05,1.78567E-07,-2.97592E-10,6.01198,26.6931,186.6
90,-100,180,-0.00154815,1.43504E-05,-3.73741E-08,2.86328E-11,-0.00157133,1.50162E-05,-4.28657E-08,3.90061E-11,73.942,88,454.368
90,-100,210,-0.00238305,7.12214E-05,-5.47606E-07,1.22475E-09,0.00229913,-5.72655E-05,4.26794E-07,-0.000000001,30.9399,0,134.414
90,-100,240,0.00362321,-7.86514E-05,4.85477E-07,-9.04375E-10,-0.000957738,6.65221E-06,1.4776E-08,-9.34264E-11,2.83062,0,274.817
90,-100,270,-0.00999989,0.000591614,-9.05307E-06,2.04937E-08,0.00944481,-0.00139837,5.13197E-05,-5.41574E-07,28.7421,78.9298,30.8979
90,-100,300,-0.01,0.000598851,-0.000009816,3.3599E-08,-0.00228681,0.000230725,-7.08774E-06,6.76625E-08,29.7201,102.312,5.67821
90,-100,330,-0.01,0.000594626,-9.48217E-06,0.000000039,0.00218106,4.70255E-05,-6.58056E-06,8.75159E-08,27.3204,90.412,20.1767
95,-100,0,-0.01,0.000607243,-1.08084E-05,0.000000059,-0.00320602,0.000633896,-2.24772E-05,2.13782E-07,29.1838,79.3694,34.6258
95,-100,30,-0.00345134,9.99429E-05,-7.90282E-07,1.85562E-09,-0.000504833,3.52055E-05,-3.70331E-07,0.000000001,53.3604,0,107.734
95,-100,60,-0.00313098,8.95437E-05,-6.91241E-07,1.57778E-09,-0.00132476,5.40936E-05,-4.78599E-07,1.17566E-09,52.0287,0.118352,127.712
95,-100,90,0.000460515,-1.56919E-05,8.92522E-08,-1.3309E-10,0.00303399,-5.53436E-05,0.000000287,-4.49208E-10,103.124,0,236.87
95,-100,120,-0.00193219,4.85672E-05,-3.1213E-07,5.82379E-10,0.00147752,-4.15321E-05,2.78673E-07,-5.32083E-10,63.1633,3.31041,169.458
95,-100,150,-0.00271619,0.000071921,-5.09391E-07,1.06328E-09,-0.000316109,2.02239E-05,-1.53221E-07,2.97152E-10,55.5479,33.6155,166.958
95,-100,180,-0.0036922,8.16747E-05,-5.13735E-07,0.000000001,0.00161438,-4.17517E-05,2.93926E-07,-6.03799E-10,3.43164,41.125,150.055
95,-100,210,-0.00366259,0.00008037,-5.01474E-07,9.44323E-10,0.00151479,-3.70043E-05,2.5829E-07,-5.30422E-10,4.61906,25.5434,141.622
95,-100,240,-0.00999996,0.000762999,-0.000018602,1.40761E-07,-8.35857E-05,-0.000341077,1.39849E-05,-1.35576E-07,34.4735,76.8754,35.7577
95,-100,270,-0.01,0.000657493,-1.32839E-05,7.70931E-08,-0.00955639,0.000539388,-5.44036E-06,-3.23522E-08,34.5243,87.4427,20.0279
95,-100,300,-0.01,0.000587962,-8.61817E-06,1.50502E-08,0.00187756,-0.0004735,1.64876E-05,-1.49693E-07,27.7618,101.7,11.3541
95,-100,330,-0.00999992,0.000589502,-0.000008895,2.84228E-08,0.00999988,-0.000695013,1.79299E-05,-1.54129E-07,1.37864,115.476,34
100,-100,0,-0.0095934,0.000551594,-9.01984E-06,4.45186E-08,0.00169974,-5.46908E-06,-2.41153E-07,9.23916E-10,1.73786,88.6517,64.9708
100,-100,30,-0.00412183,0.000120727,-9.86267E-07,2.41221E-09,-0.00203878,6.16062E-05,-0.00000047,1.05529E-09,72.4936,0,179.8
100,-100,60,-0.00130752,1.65339E-05,-1.15318E-08,-1.78686E-10,0.00318471,-6.00994E-05,3.02345E-07,-3.84142E-10,150.564,0,104.385
100,-100,90,-0.00347959,7.25466E-05,-4.30106E-07,7.69593E-10,-0.000959153,1.94787E-05,-9.02497E-08,1.12023E-10,4.32306,0,215.421
100,-100,120,-0.00391681,0.000121934,-0.000001044,2.66159E-09,-0.00397855,0.000119745,-1.0158E-06,2.58343E-09,61.8689,16.9301,133.643
100,-100,150,-0.00758383,0.000344679,-4.45443E-06,1.73739E-08,-0.00339819,5.91369E-05,1.33843E-08,-2.14971E-09,0.933681,146.379,60.0631
100,-100,180,-0.000537278,-6.87231E-06,9.47909E-08,-2.2464E-10,-0.00133197,1.17835E-05,-4.12804E-08,6.72956E-11,10,107.794,201.656
100,-100,210,-0.0035737,0.000076523,-4.65921E-07,8.56149E-10,0.000786964,-2.48279E-05,1.90192E-07,-4.04424E-10,2.51946,44.6153,131.938
100,-100,240,-0.00316113,0.000143027,-1.62775E-06,5.35119E-09,0.00264933,-0.000109194,1.24927E-06,-4.18911E-09,26.9858,41.2361,88.0098
100,-100,270,-0.00954991,0.000580544,-9.96885E-06,5.15161E-08,0.00235826,-0.000228244,4.86025E-06,-2.84958E-08,28.1136,67.8999,49.7732
100,-100,300,-0.00999977,0.000602811,-9.11511E-06,2.63466E-08,-0.01,0.00112707,-3.49311E-05,3.19845E-07,26.0344,114.731,3.34814
100,-100,330,-0.00512986,0.000497338,-1.15144E-05,7.58763E-08,0.00575505,-0.000315948,6.40438E-06,-4.1901E-08,3.95415,100.545,48.1443
-100,-95,0,-0.00226307,3.85464E-05,-2.00407E-07,3.19099E-10,-0.00302682,5.48898E-05,-0.000000283,4.4047E-10,209.072,7.8466,84.1396
-100,-95,30,0.0035826,-7.68978E-05,4.6933E-07,-8.64491E-10,0.000180706,-1.80952E-05,1.45892E-07,-3.05539E-10,51.0015,5.20076,266.275
-100,-95,60,-0.00341323,8.26914E-05,-5.58842E-07,1.13077E-09,0.00179263,-0.00001736,0.000000018,8.88286E-11,39.7512,25.8976,260
-100,-95,90,-0.00247558,3.72056E-05,-1.6426E-07,2.20781E-10,-0.000888368,0.000001958,2.60516E-08,-6.95924E-11,320.999,55.2849,241.544
-100,-95,120,0.00264213,-4.24748E-05,0.0000002,-2.38529E-10,0.00280366,-4.40241E-05,1.21405E-07,2.267E-10,173.907,126.579,80
-100,-95,150,0.00263728,-4.43555E-05,2.56562E-07,-5.19607E-10,-0.00423301,0.000120418,-9.61736E-07,2.30572E-09,152.408,75.8567,46.6174
-100,-95,180,-0.00383884,9.17085E-05,-6.97765E-07,1.65647E-09,-0.00121452,1.35623E-05,1.058E-08,-2.34084E-10,109.764,56.0995,29.3062
-100,-95,210,0.00255439,-4.19934E-05,2.45658E-07,-5.45108E-10,1.26162E-16,9.51904E-16,-1.34971E-17,4.60915E-20,145.178,117.897,0
-100,-95,240,-0.00299201,5.44078E-05,-2.93402E-07,5.11531E-10,-0.00335015,0.000071724,-5.25854E-07,1.23456E-09,181.105,69.3372,78
-100,-95,270,0.00210705,-2.49751E-05,5.19282E-08,1.13408E-10,0.0033152,-0.000067972,4.40163E-07,-9.44482E-10,202,83.7238,98
-100,-95,300,0.00250011,-3.85853E-05,1.86366E-07,-2.79283E-10,0.000993684,-1.14649E-05,2.91858E-08,-9.56199E-12,198.467,0,72.3425
-100,-95,330,-0.00359231,8.09074E-05,-0.000000595,1.45204E-09,-0.00307728,0.000117625,-1.16248E-06,3.3458E-09,106.047,16.0433,119.136
-95,-95,0,-0.00362863,7.91904E-05,-4.91338E-07,9.19999E-10,-0.00233197,3.38395E-05,-1.55604E-07,2.15832E-10,110.699,112.218,208.672
-95,-95,30,0.00291868,-5.10376E-05,2.53772E-07,-3.80816E-10,-0.0022146,3.32643E-05,-1.40124E-07,1.771E-10,78.5404,60.5097,280.645
-95,-95,60,-0.00406709,9.91026E-05,-6.8665E-07,1.43583E-09,0.00259936,-6.88496E-05,5.05756E-07,-1.10221E-09,63.7706,35.0135,148.602
-95,-95,90,-0.00231331,3.89987E-05,-0.000000286,7.85798E-10,0.0017775,-1.54509E-05,-2.35514E-08,3.20702E-10,144.477,53.6259,179.288
-95,-95,120,-0.00418618,0.000108533,-8.81163E-07,2.21972E-09,0.00141999,-3.28253E-05,3.20108E-07,-0.000000001,170.468,81.0548,84
-95,-95,150,0.0028409,-0.000052522,3.53133E-07,-8.67188E-10,-0.00540968,0.000178962,-1.67965E-06,4.75307E-09,147.834,81.038,41.8536
-95,-95,180,0.00261018,-4.33537E-05,2.47307E-07,-4.9872E-10,-0.00343165,0.000107382,-9.07191E-07,2.26636E-09,148.878,76.9782,37.2451
-95,-95,210,-0.00386198,9.28789E-05,-7.12538E-07,1.70648E-09,-0.00197524,4.59754E-05,-3.28674E-07,7.37579E-10,109.199,75.0748,5.98583
-95,-95,240,-0.00383965,9.19308E-05,-7.04454E-07,1.68702E-09,0.00136495,-2.26038E-05,6.61384E-08,6.08336E-11,108.365,45.0114,38.0801
-95,-95,270,-0.00322646,6.40664E-05,-3.94886E-07,7.53218E-10,0.000541239,-5.16483E-06,-1.54787E-08,1.07621E-10,138.1,9.59537,56.1471
-95,-95,300,-0.00160337,2.31934E-05,-1.03675E-07,1.41637E-10,-0.0025505,3.89736E-05,-1.69342E-07,2.22062E-10,235.668,0,99.6439
-95,-95,330,-0.00353132,7.80935E-05,-5.57118E-07,1.29716E-09,-0.00326178,0.000119156,-1.15568E-06,3.29357E-09,112.514,3.74581,121.101
-90,-95,0,0.00270214,-4.65871E-05,2.77197E-07,-5.72337E-10,0.00486938,-0.000142058,1.17844E-06,-0.000000003,200.637,4.36528,140.798
-90,-95,30,-0.00349771,7.49544E-05,-4.55608E-07,8.34919E-10,0.000800989,-5.13846E-06,2.15605E-08,-5.37033E-11,66.6646,52.9979,200.131
-90,-95,60,-0.003277,6.76566E-05,-0.000000395,6.94392E-10,-0.000647616,-5.85747E-06,9.85771E-08,-2.4712E-10,91.1279,33.8101,133.512
-90,-95,90,-0.00419914,0.000109765,-9.14483E-07,2.37777E-09,0.00215022,-8.70869E-05,8.51331E-07,-2.3724E-09,96.0159,7.2051,115.423
-90,-95,120,-0.00431066,0.00011607,-1.00825E-06,2.78475E-09,-0.00548812,0.000180454,-1.68716E-06,4.76063E-09,99.3011,56.103,41.886
-90,-95,150,-0.00227324,4.23159E-05,-2.49575E-07,4.54558E-10,-0.000840294,3.13504E-05,-2.28125E-07,4.52006E-10,216.862,77.2154,61.4634
-90,-95,180,-0.00397508,9.84603E-05,-7.79167E-07,1.92585E-09,-0.00169206,3.74427E-05,-2.45721E-07,4.99839E-10,106.651,54.1202,25.0592
-90,-95,210,-0.00105409,6.91393E-06,-1.46746E-08,1.14031E-11,0.000390572,-4.65372E-06,1.69191E-08,-1.92354E-11,309.104,52.5752,7.4024
-90,-95,240,-0.00324879,6.59616E-05,-0.000000434,0.000000001,0.00506665,-0.000153801,1.32754E-06,-3.45823E-09,196.317,19.6403,67.2982
-90,-95,270,-0.00298098,5.35598E-05,-2.74359E-07,4.26705E-10,-0.00198071,0.000039526,-2.96686E-07,7.20864E-10,163.476,62.3207,101.376
-90,-95,300,-0.000254969,3.02656E-06,-0.000000011,1.24233E-11,-0.00181932,2.46249E-05,-9.762E-08,1.17656E-10,1.77468E-07,0,239.989
-90,-95,330,0.00297416,-5.64629E-05,0.00000037,-8.29682E-10,-0.00223548,7.87394E-05,-7.26348E-07,1.94331E-09,160.165,0,114.187
-85,-95,0,-0.00389467,9.41871E-05,-0.00000071,1.65789E-09,0.00184529,-6.96592E-05,6.17866E-07,-1.55325E-09,136.426,0,135.152
-85,-95,30,-0.00346499,0.000071932,-4.24612E-07,7.56448E-10,-0.00199427,4.95239E-05,-3.18723E-07,5.97563E-10,83.297,16.4686,173.954
-85,-95,60,0.00281005,-4.96633E-05,0.000000291,-5.66127E-10,-0.00260555,7.46749E-05,-5.67134E-07,1.26367E-09,124.034,57.5314,148.728
-85,-95,90,-0.00376157,8.61314E-05,-5.83181E-07,1.20442E-09,0.00117838,-4.56282E-05,3.77918E-07,-8.66341E-10,84.8852,0.831498,135.654
-85,-95,120,-0.00261248,5.03646E-05,-2.98881E-07,5.44836E-10,-0.00346962,7.21246E-05,-4.26318E-07,7.60505E-10,148.946,0,59.4952
-85,-95,150,-0.00425644,0.000114098,-1.00812E-06,2.94183E-09,-0.00555721,0.000212947,-2.28463E-06,7.34955E-09,104.05,44.7417,37.1459
-85,-95,180,-0.00389074,9.39958E-05,-0.000000717,1.70152E-09,0.00268527,-0.000061165,3.80394E-07,-6.94177E-10,180.809,80.446,46.4582
-85,-95,210,-0.00394816,9.81366E-05,-7.94176E-07,2.08075E-09,-2.74782E-07,7.85929E-09,-6.85133E-11,1.86656E-13,105.501,75.6421,0.034073
-85,-95,240,-0.00119256,1.59096E-05,-6.81777E-08,8.94951E-11,-0.00227857,3.12337E-05,-1.21695E-07,1.43081E-10,340.398,50,156
-85,-95,270,-0.00360289,8.11206E-05,-5.904E-07,1.39676E-09,0.00369684,-0.000120165,1.05973E-06,-2.76859E-09,136.863,13.862,37.7871
-85,-95,300,-0.00292328,5.34657E-05,-2.99256E-07,5.15795E-10,0.00177699,-4.41284E-05,2.76779E-07,-5.02092E-10,159.301,0,51.0723
-85,-95,330,-0.00176324,2.34562E-05,-9.2451E-08,1.1066E-10,0.000917421,-1.76238E-05,7.91615E-08,-1.00651E-10,187.963,0,72.7214
-80,-95,0,-0.00342446,7.18693E-05,-4.56596E-07,8.88663E-10,-0.00127401,-5.182E-07,1.70605E-07,-6.66736E-10,200,11.0577,136.146
-80,-95,30,-0.00348742,7.54569E-05,-5.12068E-07,1.10634E-09,-0.00345116,0.00010311,-8.43741E-07,2.05161E-09,114.08,3.76712,144.657
-80,-95,60,-0.00383259,8.82018E-05,-0.000000577,1.13919E-09,-0.000219586,-1.77393E-05,2.00931E-07,-5.05255E-10,79.9653,34.362,129.448
-80,-95,90,-0.00410716,0.000103999,-8.15119E-07,0.000000002,-0.00252152,4.49607E-05,-3.33248E-07,8.75566E-10,154,16.5977,193.846
-80,-95,120,-0.00474525,0.000146886,-1.28083E-06,3.35734E-09,0.00327621,-9.57605E-05,8.51358E-07,-2.30436E-09,42.6545,42.3538,113.722
-80,-95,150,-0.00408986,0.000104508,-0.000000835,2.06881E-09,-0.00478438,0.000137141,-1.11779E-06,2.7496E-09,168.525,20.1687,74
-80,-95,180,-0.00349369,7.61911E-05,-5.36508E-07,1.24649E-09,0.00379316,-0.000126509,1.14474E-06,-3.0686E-09,197.917,19.3347,62
-80,-95,210,-0.00352556,7.66343E-05,-5.15832E-07,1.07362E-09,0.00482413,-0.00013943,1.14588E-06,-2.84212E-09,196.378,111.288,6
-80,-95,240,-0.00407553,0.000103911,-8.60211E-07,2.26881E-09,0.00181122,-4.05997E-05,2.74364E-07,-5.77182E-10,96.903,44.5726,35.5917
-80,-95,270,-0.00327127,6.57817E-05,-4.07355E-07,7.78656E-10,0.00185337,-5.24339E-05,3.68919E-07,-7.47249E-10,150.688,0.00119941,36.7801
-80,-95,300,-0.00286527,5.01424E-05,-2.63731E-07,4.37396E-10,0.00305397,-5.73769E-05,3.33664E-07,-5.99916E-10,166.727,0,124
-80,-95,330,0.00159816,-1.77391E-05,5.5068E-08,-5.12359E-11,0.00139125,-0.000011649,2.76322E-08,-1.96394E-11,184.333,0,113.392
-75,-95,0,0.00247144,-3.65908E-05,0.000000151,-1.79737E-10,0.00478486,-0.000150761,1.33672E-06,-3.56118E-09,108.007,129.921,45.2262
-75,-95,30,-0.00242319,4.76526E-05,-2.89734E-07,5.40319E-10,-0.000961251,6.06384E-06,-1.66608E-08,3.22943E-11,169.731,2.05099E-07,225.645
-75,-95,60,-0.00298239,5.43574E-05,-2.96891E-07,4.96502E-10,0.00324159,-6.29556E-05,3.47664E-07,-5.79432E-10,111.434,82.0401,77.3433
-75,-95,90,-0.00407615,0.000103764,-8.17417E-07,0.000000002,-0.00178542,1.39051E-05,5.76357E-08,-3.96954E-10,156,2.1219,127.329
-75,-95,120,-0.00398336,9.71315E-05,-7.14889E-07,1.5336E-09,-0.00310514,5.51536E-05,-2.08824E-07,-6.81948E-11,150,5.80262,100.299
-75,-95,150,-0.00405221,0.000101792,-0.000000806,0.000000002,-0.00352204,0.000112397,-9.6925E-07,2.47237E-09,124.61,14.1582,38.2597
-75,-95,180,0.00280806,-5.19454E-05,3.59593E-07,-9.3376E-10,-0.00468232,0.000172151,-1.74354E-06,5.26101E-09,145.928,72.6189,34.7965
-75,-95,210,0.00191365,-2.16929E-05,6.61069E-08,-6.86313E-11,7.87417E-09,1.50639E-09,-2.27773E-11,7.987E-14,144.017,112.897,0
-75,-95,240,-0.00377481,8.92356E-05,-6.77933E-07,1.65351E-09,0.00165272,-4.87781E-05,4.17281E-07,-1.09007E-09,97.9903,36.7914,39.5247
-75,-95,270,-0.00330479,6.77849E-05,-4.41079E-07,9.4546E-10,0.0009786,-5.72804E-05,6.00889E-07,-1.69239E-09,148.475,19.1688,16.2992
-75,-95,300,-0.0026704,5.13138E-05,-3.04184E-07,5.54647E-10,-0.00286885,4.94843E-05,-2.42585E-07,3.58701E-10,240.443,0,124
-75,-95,330,0.000983548,-5.96612E-06,1.13305E-08,-7.11704E-12,-0.000284954,3.78412E-06,-1.23E-08,1.10214E-11,287.669,0,189.568
-70,-95,0,0.00289226,-0.000052968,3.27175E-07,-6.97948E-10,0.00214655,-0.000033934,2.35921E-07,-6.17416E-10,120.467,99.2956,177.828
-70,-95,30,-0.00352924,7.71225E-05,-5.246E-07,1.1325E-09,-0.00342843,0.000103275,-8.49873E-07,2.07639E-09,106.702,1.94422,143.931
-70,-95,60,-0.00325246,7.94242E-05,-6.1438E-07,1.47178E-09,-0.00331843,6.59477E-05,-3.67893E-07,6.02473E-10,86.7716,75.3747,70.3113
-70,-95,90,-0.00395285,0.000100738,-7.92802E-07,1.92536E-09,-0.00118576,-3.38677E-06,1.99782E-07,-7.56764E-10,114.525,0,96.9997
-70,-95,120,-0.00522663,0.000163667,-1.4573E-06,3.91611E-09,0.00391629,-9.55951E-05,7.49071E-07,-1.8363E-09,36.1501,20.4335,129.77
-70,-95,150,-0.00346564,7.71431E-05,-5.27617E-07,1.11192E-09,-0.00405671,0.000098614,-6.81652E-07,1.42205E-09,107.818,20.3824,48.4906
-70,-95,180,-0.00400618,0.000099891,-7.94586E-07,0.000000002,-0.00131,5.93473E-05,-6.03609E-07,1.72854E-09,150.402,12.544,5.58707
-70,-95,210,-0.00390281,9.53161E-05,-7.42631E-07,1.83059E-09,2.69593E-05,-6.81211E-07,5.25625E-09,-1.26887E-11,122.638,41.7249,3.75744
-70,-95,240,-0.00376919,8.79947E-05,-6.47352E-07,1.48084E-09,0.00101927,-9.01037E-06,-1.32981E-08,1.56826E-10,118.838,26.2138,23.894
-70,-95,270,-0.00284567,4.94706E-05,-0.000000244,3.62932E-10,-1.20802E-05,4.23343E-06,-4.15373E-08,8.7542E-11,113.09,20.1597,49.8539
-70,-95,300,-0.00328407,6.64028E-05,-0.000000418,8.15275E-10,0.00215941,-4.89149E-05,2.93199E-07,-5.16004E-10,133.195,0,56.7509
-70,-95,330,0.00244516,-3.71439E-05,1.79095E-07,-2.7523E-10,0.00274577,-5.33335E-05,2.89098E-07,-4.69263E-10,200.322,0,62.323
-65,-95,0,-0.00517895,0.000165688,-1.65405E-06,5.1181E-09,-0.00367947,9.12399E-05,-8.71467E-07,2.81358E-09,110.058,93.8272,153.326
-65,-95,30,-0.00317009,6.22812E-05,-3.86068E-07,7.44441E-10,-0.000208579,2.06931E-05,-0.000000195,4.56811E-10,123.751,0,138.454
-65,-95,60,-0.00366694,8.38839E-05,-5.43235E-07,1.05972E-09,-0.00345497,7.20809E-05,-4.32131E-07,7.98307E-10,40.3679,0,257.61
-65,-95,90,-0.00309518,0.000075094,-5.83282E-07,1.40559E-09,-0.00210927,3.25054E-05,-0.000000217,5.30135E-10,95.4374,46,192.776
-65,-95,120,-0.00371245,8.80499E-05,-5.89654E-07,1.18818E-09,0.00357285,-7.68875E-05,4.70271E-07,-8.67963E-10,46.9623,14.7979,200.225
-65,-95,150,-0.00425115,0.00011223,-0.000000939,2.44759E-09,-0.00434914,0.000132162,-1.12238E-06,2.85597E-09,98.7534,28.9753,40.8186
-65,-95,180,-0.00405559,0.000102368,-0.000000823,2.09792E-09,-0.000957742,6.22598E-05,-6.98309E-07,2.09101E-09,147.748,11.3424,5.14199
-65,-95,210,0.00274024,-4.90877E-05,3.22792E-07,-7.75964E-10,-5.44576E-16,1.68729E-17,-1.52354E-19,4.19489E-22,165.84,81.8231,0
-65,-95,240,-0.00395706,9.71303E-05,-7.50446E-07,1.80231E-09,0.00280981,-9.09089E-05,7.71147E-07,-1.91647E-09,82.928,46.4774,35.1143
-65,-95,270,-0.00367225,8.30525E-05,-5.84131E-07,1.27212E-09,-0.00421184,0.000106283,-7.62608E-07,1.65142E-09,174.761,0,75.7887
-65,-95,300,-0.00331717,0.000067731,-4.29867E-07,8.44653E-10,0.00250211,-6.29593E-05,4.21844E-07,-8.31648E-10,131.313,0,52.5486
-65,-95,330,-0.00138883,1.99469E-05,-8.97676E-08,1.23331E-10,-0.00252689,3.82551E-05,-1.64681E-07,2.1395E-10,215.994,0,96.4115
-60,-95,0,-0.00325307,6.56054E-05,-4.18294E-07,8.53797E-10,0.00420856,-0.000106117,7.60827E-07,-1.64628E-09,150.754,2.10048,59.5997
-60,-95,30,-0.00244268,0.000050176,-3.23654E-07,6.42441E-10,-0.00199474,2.77431E-05,-1.57179E-07,3.11289E-10,197.531,0,260.725
-60,-95,60,-0.00344558,7.96457E-05,-5.1968E-07,0.000000001,-0.00175622,2.25299E-05,-1.25152E-07,2.54464E-10,74.5223,60,228.368
-60,-95,90,-0.0026258,4.13085E-05,-1.84785E-07,2.49467E-10,-0.000508277,4.9127E-06,-8.74087E-09,-4.46469E-13,5.58856,5.36145E-06,364.939
-60,-95,120,0.00233157,-3.48582E-05,1.84946E-07,-3.8965E-10,0.000281001,-8.25485E-06,-2.05772E-08,3.44048E-10,130.021,3.49636,155.838
-60,-95,150,-0.00428632,0.000113842,-9.53612E-07,2.48453E-09,-0.00438902,0.000137972,-1.20859E-06,3.16842E-09,109.207,15.2466,40.2636
-60,-95,180,-0.00348327,7.55268E-05,-5.24809E-07,1.20427E-09,0.00259004,-0.000100276,9.69123E-07,-2.69934E-09,198,26.2045,56
-60,-95,210,-0.00212364,3.61096E-05,-1.90158E-07,3.07423E-10,7.29477E-15,-1.14306E-16,5.45929E-19,-8.14858E-22,137.173,41.7841,0
-60,-95,240,-0.00337753,6.88317E-05,-0.000000402,7.20374E-10,-0.00242571,4.01183E-05,-1.84058E-07,2.47804E-10,146.244,72.4198,69.4491
-60,-95,270,-0.00329272,0.000066397,-4.04587E-07,7.56689E-10,0.000411746,-1.84591E-06,-3.48023E-08,1.37529E-10,105.818,0,62.9145
-60,-95,300,-0.00357868,7.86499E-05,-0.000000529,1.08826E-09,-0.00280434,5.52296E-05,-4.47416E-07,1.27515E-09,167.818,0,175.489
-60,-95,330,-0.00111898,6.60883E-06,-2.23897E-09,-1.86159E-11,-0.00181122,2.80175E-05,-1.19681E-07,1.52143E-10,8.60362,0,236.168
-55,-95,0,-0.00326123,6.58657E-05,-4.18919E-07,8.52483E-10,0.00420858,-0.000106118,7.60836E-07,-1.64631E-09,117.135,29.9963,59.8818
-55,-95,30,-0.00313741,6.07941E-05,-3.66329E-07,6.97134E-10,0.00385398,-8.89891E-05,5.84269E-07,-1.15773E-09,164.159,0,65.4153
-55,-95,60,-0.00190877,2.58064E-05,-1.45326E-07,2.90505E-10,0.000320194,1.47042E-05,-1.72804E-07,4.30197E-10,115.421,40.2587,265.693
-55,-95,90,-0.00355211,7.55947E-05,-4.57452E-07,8.35446E-10,-0.00306956,5.70848E-05,-3.1278E-07,5.34867E-10,17.2267,0,269.763
-55,-95,120,-0.00445847,0.000119757,-9.25606E-07,2.16586E-09,0.00145899,-0.000054796,5.03602E-07,-1.30913E-09,61.8998,0,117.406
-55,-95,150,0.0028124,-5.25834E-05,3.74655E-07,-0.000000001,-0.00576368,0.000199029,-1.95427E-06,5.79118E-09,154.814,62,42.134
-55,-95,180,-0.00212189,3.45221E-05,-1.67792E-07,2.4812E-10,0.00281023,-4.73153E-05,2.26522E-07,-3.27292E-10,176.314,3.44925,98.2281
-55,-95,210,-0.00270162,5.38997E-05,-3.38475E-07,6.5731E-10,-2.00127E-16,4.23496E-18,-2.62937E-20,4.99474E-23,127.286,39.3397,0
-55,-95,240,-0.00456005,0.000129463,-1.1719E-06,3.31106E-09,0.00165756,-3.16658E-05,2.92916E-07,-0.000000001,66.4436,43.4616,45.3932
-55,-95,270,-0.00479074,0.000148594,-1.63316E-06,5.91732E-09,-0.00333051,6.49729E-05,-3.15569E-07,2.74459E-10,79.0992,39.3152,142
-55,-95,300,-0.003155,6.09992E-05,-3.60404E-07,6.87973E-10,0.00120899,-5.22008E-05,4.65761E-07,-1.14401E-09,138.282,0,37.8268
-55,-95,330,0.00309232,-0.000062911,4.71159E-07,-1.17821E-09,-0.00336892,7.09711E-05,-4.82458E-07,0.000000001,110.592,0,142.192
-50,-95,0,-0.00345807,7.89913E-05,-5.52265E-07,1.18744E-09,0.000142631,2.26313E-05,-2.64604E-07,7.08122E-10,203.123,19.9098,41.2883
-50,-95,30,0.00255993,-4.06539E-05,2.04052E-07,-3.18769E-10,0.00332023,-6.62957E-05,3.76283E-07,-6.44513E-10,258.124,0,103.854
-50,-95,60,0.00290874,-5.34451E-05,3.2814E-07,-6.39239E-10,-0.00213456,2.67677E-05,-8.53004E-08,5.52643E-11,79.3239,35.0562,270
-50,-95,90,-0.00187642,0.000021095,-6.74338E-08,6.50569E-11,0.00113696,-1.24165E-05,4.12643E-08,-4.16576E-11,29.9581,0,340.09
-50,-95,120,-0.00453601,0.000124383,-9.89445E-07,2.3881E-09,0.00242126,-0.000073405,6.34801E-07,-1.629E-09,54.5646,0,121.482
-50,-95,150,-0.00440734,0.000128277,-1.1772E-06,3.35384E-09,-0.00507811,0.000155304,-1.35009E-06,3.54149E-09,151.039,27.0702,70
-50,-95,180,-0.00399776,0.000109698,-9.62779E-07,2.63242E-09,-0.00522675,0.000163675,-1.4574E-06,3.91648E-09,160.636,8.35676,68
-50,-95,210,-0.00472887,0.00014015,-1.36157E-06,4.23213E-09,0.00343986,-0.000145727,1.63347E-06,-5.38354E-09,80.858,54.81,14.4758
-50,-95,240,0.0023087,-3.29895E-05,1.49167E-07,-2.17268E-10,-1.24717E-05,-5.65237E-06,3.31312E-08,-4.54251E-11,143.348,45.9674,51.0536
-50,-95,270,-0.00392101,9.51329E-05,-7.21934E-07,1.6981E-09,-0.0032931,6.30581E-05,-2.86916E-07,1.50067E-10,153.588,5.63401,84.266
-50,-95,300,-0.00283272,4.75441E-05,-2.09827E-07,2.22088E-10,0.00375251,-8.47706E-05,5.43191E-07,-0.000000001,147.548,2.21899,93.1575
-50,-95,330,0.00261328,-4.25711E-05,2.22109E-07,-3.62236E-10,0.00381282,-8.70986E-05,5.6575E-07,-1.10906E-09,241.38,0,89.3513
-45,-95,0,-0.00264844,4.47025E-05,-2.25879E-07,3.71292E-10,-0.00414314,0.000102843,-7.25892E-07,1.54627E-09,188.522,12.4499,6.37111
-45,-95,30,-0.000935637,8.33423E-06,-1.99241E-08,1.40544E-11,-0.000160806,-1.54006E-06,7.15797E-09,-6.52441E-12,363.496,0,131.015
-45,-95,60,-0.00275219,4.54623E-05,-2.11749E-07,2.9244E-10,-0.000760205,2.02936E-05,-1.12693E-07,1.73398E-10,120,1.37836E-05,240.444
-45,-95,90,-0.00328571,7.91272E-05,-5.29499E-07,1.05922E-09,0.00125328,-4.90505E-06,-5.42746E-08,2.09016E-10,74.3476,0,246.394
-45,-95,120,-0.00378944,8.60337E-05,-5.55406E-07,1.08211E-09,0.00261277,-4.72585E-05,2.94483E-07,-5.8701E-10,28.7553,0,155.631
-45,-95,150,-0.00436757,0.000118099,-1.00472E-06,2.81039E-09,0.00299204,-4.77508E-05,6.14841E-08,8.30665E-10,114.644,21.7314,130
-45,-95,180,-0.00175373,2.81908E-05,-0.000000143,2.22686E-10,-0.00181545,0.00003651,-1.93251E-07,2.9987E-10,143.537,9.5146,22.7911
-45,-95,210,-0.00322157,7.11603E-05,-4.87898E-07,0.000000001,-4.30191E-16,9.48546E-18,-6.23152E-20,1.26452E-22,93.0608,60,0
-45,-95,240,-0.00303706,0.000057884,-0.000000327,5.98462E-10,0.0049036,-0.000144062,1.20346E-06,-0.000000003,159.25,1.52498E-05,72
-45,-95,270,-0.00420407,0.00010962,-8.98943E-07,2.29049E-09,-0.0059479,0.000211956,-2.14771E-06,6.56785E-09,159.78,8.18884,58.5963
-45,-95,300,-0.00217117,3.31657E-05,-2.09091E-07,4.64904E-10,0.00142511,-6.60582E-06,-8.68701E-08,3.94738E-10,217.237,0,90
-45,-95,330,-0.00382916,0.000090628,-6.59946E-07,1.48277E-09,-0.00434535,0.000113127,-8.3745E-07,1.87097E-09,165.415,0,70.0168
-40,-95,0,-0.00264385,4.32815E-05,-2.04828E-07,2.9369E-10,0.000360606,-1.64315E-05,1.05264E-07,-1.75472E-10,160.021,0,58.1098
-40,-95,30,-0.00201357,2.88046E-05,-1.19175E-07,1.57013E-10,-0.00309143,5.72579E-05,-3.01551E-07,4.79296E-10,222.513,0,10.9949
-40,-95,60,-0.000368437,4.62135E-06,-1.76596E-08,2.1084E-11,-0.00132204,0.000014775,-4.61662E-08,4.22596E-11,0,0,315.197
-40,-95,90,-0.00364827,9.26642E-05,-6.87889E-07,1.54809E-09,0.00050195,-3.84728E-05,3.87456E-07,-0.000000001,75.7154,0,123.205
-40,-95,120,-0.00312862,7.53606E-05,-5.01309E-07,0.000000001,0.000347777,-2.04355E-05,1.89692E-07,-4.5179E-10,64.7496,0,121.952
-40,-95,150,-0.0037343,8.82112E-05,-0.000000589,1.1839E-09,-0.00277302,4.60759E-05,-2.13694E-07,2.87113E-10,81.7879,8.42006,66.3523
-40,-95,180,-0.00474047,0.000145472,-1.41935E-06,4.31306E-09,-0.00539388,0.000175236,-1.61821E-06,4.50903E-09,141.165,22.4293,66
-40,-95,210,0.00263169,-4.61384E-05,3.11941E-07,-8.24672E-10,-0.00130796,1.53288E-05,9.24746E-08,-8.47621E-10,143.694,47.5486,47.2421
-40,-95,240,-0.00416943,0.000107762,-8.79201E-07,2.23171E-09,-0.000950917,5.84119E-05,-6.28499E-07,1.80927E-09,101.855,5.85013,35.2468
-40,-95,270,-0.003092,5.67714E-05,-2.7886E-07,3.50521E-10,0.00457167,-0.000125491,9.79456E-07,-2.3072E-09,146.063,0.000701804,78
-40,-95,300,-0.00383867,9.26324E-05,-7.32573E-07,1.82517E-09,0.00316698,-6.20398E-05,3.3255E-07,-4.94425E-10,96.0564,0,61.3805
-40,-95,330,-0.00351268,7.67664E-05,-5.33199E-07,1.1655E-09,0.00430265,-0.000110915,0.000000813,-1.79852E-09,115.836,0,55.908
-35,-95,0,-0.00288508,5.03111E-05,-2.54865E-07,4.05302E-10,0.00288487,-4.93408E-05,2.25324E-07,-2.61373E-10,152.191,0,113.959
-35,-95,30,-0.00275207,6.13865E-05,-4.322E-07,0.000000001,-0.00413904,0.000104582,-0.000000754,1.64509E-09,163.741,3.03553E-22,70.0706
-35,-95,60,-0.00312961,6.43064E-05,-0.000000372,6.46539E-10,0.00304296,-0.00005577,2.90549E-07,-4.5677E-10,52.9999,0,235.032
-35,-95,90,-0.00257318,5.90257E-05,-3.66675E-07,6.74327E-10,0.00204799,-0.000024553,7.24837E-08,-3.5311E-11,80.2023,0,243.611
-35,-95,120,-0.00441678,0.000117319,-0.000000886,0.000000002,0.00501349,-0.000150743,1.28989E-06,-3.33636E-09,95.4661,0,196.337
-35,-95,150,-0.00510666,0.00015624,-1.35924E-06,3.56875E-09,-0.00343954,7.10664E-05,-4.12849E-07,7.0691E-10,64.5557,0,188.079
-35,-95,180,0.00176909,-1.85551E-05,5.1564E-08,-3.54119E-11,0.000935346,-1.29973E-05,8.31421E-08,-1.7648E-10,252.701,46.904,85.9223
-35,-95,210,-0.00466762,0.000136149,-1.29167E-06,3.92875E-09,0.000664496,-7.46432E-05,1.06634E-06,-3.9272E-09,91.805,22.7841,23.7105
-35,-95,240,-0.00475764,0.000141695,-0.000001379,4.29764E-09,0.00126714,-3.39263E-06,-1.97803E-07,1.08815E-09,88.7941,25.2887,24.1865
-35,-95,270,-0.00344562,7.12502E-05,-4.20405E-07,7.49294E-10,0.000676707,-5.97241E-06,-9.8063E-09,8.32865E-11,86.176,0,58.7446
-35,-95,300,-0.00401217,0.000100903,-0.000000831,2.18565E-09,0.00433867,-0.000113103,8.38281E-07,-1.87481E-09,100.613,0,50.0175
-35,-95,330,-0.00353498,7.77012E-05,-0.000000542,1.1883E-09,0.00430913,-0.000111249,8.16681E-07,-1.80936E-09,111.067,0,55.743
-30,-95,0,0.00254987,-4.12871E-05,2.27384E-07,-4.21655E-10,-0.00376215,8.52402E-05,-0.000000549,1.06715E-09,242,16,76.513
-30,-95,30,0.00245346,-3.76685E-05,1.87475E-07,-3.03289E-10,0.00346561,-7.19576E-05,4.24838E-07,-7.56984E-10,208.994,0,66.4785
-30,-95,60,0.00251128,-4.08106E-05,2.3526E-07,-4.40646E-10,-0.00105879,1.08267E-06,7.24745E-08,-2.30999E-10,79.2649,6.16093,273.944
-30,-95,90,0.00275056,-0.000046566,2.4492E-07,-3.98756E-10,-0.000107111,-1.30944E-05,1.16276E-07,-2.36453E-10,62.0732,0,313.336
-30,-95,120,-0.00373779,0.000101671,-8.71545E-07,2.31231E-09,-0.0050482,0.000152683,-1.31309E-06,3.40812E-09,115.258,0,48.7786
-30,-95,150,-0.0051617,0.000159626,-1.40367E-06,3.72515E-09,0.00287298,-0.000084393,7.74915E-07,-2.17177E-09,40.6586,0,109.066
-30,-95,180,-0.00490637,0.000160595,-1.68217E-06,5.49504E-09,-0.0050815,0.000155386,-1.34984E-06,3.53354E-09,131.272,19.9036,70
-30,-95,210,-0.00481641,0.000145101,-1.42132E-06,4.44564E-09,0.00051793,-0.000056032,7.96079E-07,-0.000000003,79.8474,27.6538,27.2027
-30,-95,240,-0.00281304,5.60855E-05,-3.38867E-07,6.26694E-10,-2.16283E-17,4.32344E-19,-2.53721E-21,4.56417E-24,143.695,1.86415,0
-30,-95,270,-0.00480526,0.000145447,-1.45339E-06,4.58772E-09,0.00406448,-0.000113407,8.78119E-07,-0.000000002,83.1278,14.2163,39.5744
-30,-95,300,-0.00406803,0.000103755,-8.64081E-07,2.28817E-09,0.00452732,-0.000123206,9.53328E-07,-2.22617E-09,97.8739,0,47.9932
-30,-95,330,0.00244202,-0.00003768,1.95366E-07,-3.46878E-10,0.00444066,-0.000118207,8.94896E-07,-0.000000002,197.248,0,45.5609
-25,-95,0,-0.0028254,6.37011E-05,-4.50059E-07,0.000000001,-0.00410665,0.00010104,-7.06883E-07,1.49252E-09,159.665,0,69.3017
-25,-95,30,-0.00274443,6.55344E-05,-4.92754E-07,1.13968E-09,9.71734E-05,-2.99955E-05,3.34943E-07,-9.07707E-10,115.202,0,125.315
-25,-95,60,0.00265478,-4.47933E-05,2.55834E-07,-4.65856E-10,-0.00249787,5.22175E-05,-3.2021E-07,5.93185E-10,119.861,11.785,173.566
-25,-95,90,-0.00320772,7.66416E-05,-5.07819E-07,0.000000001,-0.00240402,5.27922E-05,-3.18729E-07,5.89283E-10,70.254,0,203.895
-25,-95,120,-0.00482005,0.000139689,-1.15088E-06,2.86157E-09,0.00495846,-0.000147503,1.24911E-06,-3.1993E-09,86.9403,0,197.886
-25,-95,150,-0.00410025,0.000100725,-7.03581E-07,1.48323E-09,0.00234877,-4.60859E-05,3.18354E-07,-7.02922E-10,22.7085,0,133.526
-25,-95,180,-0.00453338,0.000145191,-1.48545E-06,4.72825E-09,-0.0055558,0.000185917,-1.76827E-06,5.07501E-09,135.149,29.2504,64
-25,-95,210,-0.00630004,0.000252599,-3.46081E-06,1.56484E-08,0.00503863,-0.000276326,4.57179E-06,-2.28313E-08,52.9412,38.1972,40.0478
-25,-95,240,-0.00295344,6.14614E-05,-3.89487E-07,7.56694E-10,-1.95053E-16,3.70469E-18,-2.14427E-20,3.87995E-23,140.777,0.0150116,0
-25,-95,270,-0.00346463,7.44517E-05,-0.000000473,0.000000001,-0.000749793,-4.95382E-06,2.25102E-07,-0.000000001,194,24.6673,46.4987
-25,-95,300,-0.00336209,6.81296E-05,-3.97871E-07,7.19473E-10,0.00113095,-6.81542E-05,7.61253E-07,-2.29516E-09,113.371,0,31.9955
-25,-95,330,0.00224272,-3.09567E-05,1.32704E-07,-1.76071E-10,0.00216317,-0.000035049,1.57376E-07,-2.11019E-10,180.068,0,63.4951
-20,-95,30,-0.00325519,6.53193E-05,-4.07093E-07,8.37394E-10,-8.59019E-05,3.82649E-05,-4.90096E-07,1.51684E-09,95.2878,3.02168E-19,116.065
-20,-95,60,-0.00227342,4.62725E-05,-2.70761E-07,4.80701E-10,0.00184394,-4.07091E-05,2.57242E-07,-4.83498E-10,62.4311,0.00381522,171.995
-20,-95,90,-0.00314224,7.46255E-05,-5.06623E-07,0.000000001,0.00247132,-5.89904E-05,4.09663E-07,-8.55813E-10,48.5195,0.134955,126.229
-20,-95,120,-0.00338982,0.000090794,-7.0957E-07,1.68677E-09,0.00224964,-6.74563E-05,5.78398E-07,-1.46917E-09,50.2852,0.0440135,129.903
-20,-95,150,-0.00467704,0.000142617,-1.22576E-06,3.16789E-09,-0.00134448,-1.5501E-06,2.24794E-07,-9.39954E-10,62.6282,0.192002,92.7462
-20,-95,180,-0.00564711,0.000201652,-2.34034E-06,8.7536E-09,-0.00331803,0.000100389,-9.24556E-07,2.63765E-09,71.3173,13.8681,49.989
-20,-95,210,-0.00512614,0.000164844,-1.71583E-06,5.62178E-09,-0.00261438,0.00012779,-1.54065E-06,5.35225E-09,77.1307,29.6523,21.7804
-20,-95,240,-0.00371216,9.07387E-05,-6.89216E-07,1.62411E-09,-6.51168E-07,1.53196E-08,-1.09847E-10,2.46145E-13,127.975,4.52565,0.0477355
-20,-95,300,-0.00383095,9.19214E-05,-7.09269E-07,1.7584E-09,0.00463117,-0.000137761,1.18747E-06,-3.12833E-09,90.9605,0.642314,50.4163
-20,-95,330,-0.00341902,7.24902E-05,-0.000000479,0.000000001,0.00463217,-0.000131985,1.0791E-06,-2.67926E-09,102.567,0.0109001,56.8539
-15,-95,60,-0.00341601,7.14885E-05,-4.48923E-07,8.81418E-10,-0.000924512,0.000049219,-4.76332E-07,1.24144E-09,89.786,0.181406,135.364
-15,-95,90,-0.00310809,7.35466E-05,-0.000000483,9.48343E-10,0.00268509,-5.59462E-05,3.61755E-07,-7.19283E-10,42.8237,0.0729368,172.962
-15,-95,120,-0.00527273,0.000170726,-1.68143E-06,5.11113E-09,0.00380881,-0.000156985,1.70647E-06,-5.4394E-09,55.412,0.136258,108.818
-15,-95,150,-0.00533918,0.000178962,-1.74609E-06,5.20537E-09,0.00305784,-0.000117862,0.000001277,-4.1015E-09,44.4541,0.01189,105.865
-15,-95,180,-0.00563453,0.000202376,-2.38555E-06,9.17822E-09,-0.00579218,0.000241527,-3.05542E-06,1.20958E-08,79.0905,14.8412,37.4097
-15,-95,210,-0.00531097,0.000176929,-1.90711E-06,6.46762E-09,-0.00318154,0.000156511,-1.9344E-06,6.91774E-09,74.4272,27.6073,23.6687
-15,-95,300,-0.00390659,0.000095431,-0.000000747,1.87102E-09,0.00454935,-0.000135395,1.16772E-06,-3.07397E-09,87.5135,0.212379,49.9322
-15,-95,330,-0.00300485,5.32851E-05,-2.37156E-07,1.32796E-10,0.00361692,-7.70296E-05,3.96801E-07,-2.61231E-10,93.4799,0.128727,65.6513
-10,-95,30,-0.00362745,8.24649E-05,-6.03808E-07,1.4232E-09,0.00277391,-4.50423E-05,1.69928E-07,-3.73659E-11,112.538,0.192922,86.9895
-10,-95,60,-0.00343909,7.25632E-05,-4.61833E-07,9.21355E-10,-0.000659036,0.000044172,-4.50172E-07,1.20542E-09,89.2889,0.200462,132.323
-10,-95,90,-0.00253434,5.81516E-05,-3.63081E-07,6.80041E-10,0.00158863,-0.000041411,2.94706E-07,-6.13691E-10,53.6371,0.175324,138.986
-10,-95,120,-0.00537387,0.000174734,-1.64083E-06,4.67671E-09,0.00311116,-0.00012635,1.31391E-06,-0.000000004,51.8551,0.00232071,114.267
-10,-95,150,-0.00451967,0.00013429,-1.24416E-06,3.62802E-09,0.00384345,-0.000134847,1.3607E-06,-4.14846E-09,49.153,0.0346919,86.136
-10,-95,180,-0.00555671,0.000188939,-1.90994E-06,5.92811E-09,-0.00224791,2.13874E-05,1.58719E-07,-1.30628E-09,62.8305,0.0406051,70.0025
-10,-95,210,-0.00565207,0.000201616,-2.37363E-06,9.10261E-09,-0.00412098,0.000218594,-3.09118E-06,1.29173E-08,73.136,25.6249,24.2874
-10,-95,240,-0.00284299,6.11828E-05,-4.06144E-07,8.28168E-10,-3.64559E-06,7.25041E-08,-4.39472E-10,8.32446E-13,132.054,0.679544,0.0473947
-10,-95,330,-0.00378302,0.000086997,-6.07421E-07,1.3317E-09,0.00404259,-0.000127663,1.12153E-06,-0.000000003,98.4023,0.0157745,41.1046
-5,-95,0,-0.00352579,7.67499E-05,-5.13626E-07,1.09064E-09,0.00498281,-0.000152157,1.33021E-06,-3.52783E-09,105.376,0.549853,56.478
-5,-95,60,-0.00339313,6.98314E-05,-4.19449E-07,7.74163E-10,-0.000613662,4.42932E-05,-4.61334E-07,1.25395E-09,86.5556,0.0483702,130.122
-5,-95,90,-0.00295966,6.84841E-05,-4.49289E-07,8.89387E-10,0.00274132,-6.26525E-05,4.24317E-07,-8.70737E-10,42.2044,0.158865,129.441
-5,-95,120,-0.00362933,9.76107E-05,-7.28717E-07,1.62566E-09,0.00310411,-7.11119E-05,5.16228E-07,-1.16139E-09,32.703,0.00486481,154.064
-5,-95,150,-0.00522045,0.000178908,-1.72684E-06,0.000000005,0.00331624,-0.000114545,1.15567E-06,-3.49795E-09,38.7375,0.00955978,112.617
-5,-95,180,-0.00614128,0.000232681,-2.73885E-06,0.00000001,0.00304524,-0.000154824,0.000002111,-8.36768E-09,46.5162,0.176445,83.4457
-5,-95,210,-0.00487834,0.000160526,-1.71288E-06,5.79482E-09,-0.0030283,0.000124515,-1.43513E-06,0.000000005,74.5177,18.1785,30.8209
-5,-95,240,-0.00270968,5.78702E-05,-3.83377E-07,7.84701E-10,-2.2804E-06,0.000000046,-2.82351E-10,5.4203E-13,129.86,1.49488,0.047004
-5,-95,330,-0.00353655,7.67738E-05,-5.02398E-07,0.000000001,0.00496427,-0.000150684,1.31189E-06,-3.46713E-09,91.391,0.240958,52.9429
0,-95,0,-0.00355509,7.73703E-05,-5.10286E-07,1.05854E-09,0.00445065,-0.000125153,1.00674E-06,-2.45563E-09,97.9323,0.505965,58.3523
0,-95,30,-0.00317639,6.23919E-05,-3.69354E-07,7.142E-10,0.00193545,-4.31921E-05,2.31119E-07,-2.72764E-10,117.835,1.94243,77.2011
0,-95,60,-0.00352019,7.62569E-05,-0.000000503,0.000000001,-0.000200079,3.53607E-05,-4.06413E-07,1.15464E-09,87.6727,0.243551,126.303
0,-95,90,-0.00267373,5.69638E-05,-3.5288E-07,6.67286E-10,0.00267056,-5.45704E-05,3.474E-07,-6.81551E-10,34.9734,1.40317,154.993
0,-95,150,-0.00464197,0.000152094,-1.39148E-06,3.81301E-09,0.00353703,-0.00010412,9.50501E-07,-2.66174E-09,32.7354,0.00311891,122.94
0,-95,180,-0.00628354,0.000239911,-2.6738E-06,9.08069E-09,0.0024529,-0.000124638,1.63192E-06,-6.13016E-09,42.5435,0.0730793,87.978
0,-95,210,-0.00605776,0.000231408,-2.91315E-06,0.000000012,-0.00639743,0.000346311,-5.18238E-06,2.31888E-08,70.078,22.99,25.9582
0,-95,240,-0.0057546,0.000210684,-2.54564E-06,0.00000001,1.55518E-05,-4.52359E-07,4.09027E-09,-1.14954E-11,71.3099,36.8464,9.60961
0,-95,270,-0.00494051,0.000153429,-1.52907E-06,4.86302E-09,0.0016215,-5.75696E-05,6.06714E-07,-0.000000002,80.0255,4.49519,34.5637
0,-95,300,-0.00304759,4.28357E-05,2.02905E-07,-2.83334E-09,0.00543604,-0.000192222,2.03369E-06,-6.70396E-09,68.7959,17.2925,42.3912
0,-95,330,-0.00379813,8.91434E-05,-0.000000648,1.50954E-09,0.0052754,-0.000167763,0.000001519,-4.15574E-09,88.6451,0.0978096,49.9128
5,-95,60,-0.00357707,7.88527E-05,-5.31328E-07,1.12794E-09,-9.15526E-06,3.16947E-05,-3.89742E-07,1.14264E-09,86.5492,0.267647,123.374
5,-95,90,-0.00285751,6.48839E-05,-4.12426E-07,7.93784E-10,0.00291077,-6.67583E-05,4.49586E-07,-9.16399E-10,41.0028,0.171271,128.816
5,-95,120,-0.00580108,0.000200981,-2.05909E-06,6.49471E-09,0.00459456,-0.000149194,1.40118E-06,-0.000000004,40.2137,0.258867,102.6
5,-95,180,-0.00515103,0.000178357,-1.73555E-06,5.07241E-09,-0.00194484,1.21573E-05,1.95881E-07,-1.18084E-09,55.1396,1.3152,78.1334
5,-95,240,-0.00608298,0.000233594,-2.95551E-06,1.2141E-08,-0.000870892,3.79124E-05,-5.04159E-07,2.09834E-09,67.4284,33.6074,14.6071
5,-95,270,-0.00375198,9.40058E-05,-7.10404E-07,1.65263E-09,-0.000210118,0.000004935,-3.5403E-08,7.94867E-11,111.829,2.17127,7.17914
5,-95,330,-0.00389096,9.35419E-05,-6.92363E-07,1.62473E-09,0.00521708,-0.000167371,1.5436E-06,-4.32693E-09,85.1159,0.30488,49.6204
10,-95,0,-0.00379433,8.73494E-05,-5.9307E-07,1.24013E-09,0.0042291,-0.000133936,1.18218E-06,-3.12702E-09,92.7672,0.154529,48.8539
10,-95,30,-0.00397524,9.33636E-05,-6.45324E-07,1.3533E-09,0.00171212,-1.13328E-05,-1.43572E-07,9.157E-10,88.9596,0.718162,58.7964
10,-95,60,-0.00365698,8.24449E-05,-5.69442E-07,1.24078E-09,7.99429E-05,3.15519E-05,-4.12242E-07,1.25931E-09,85.329,0.279531,119.253
10,-95,90,-0.00388273,0.000108328,-8.52756E-07,0.000000002,0.00342226,-9.81855E-05,7.92796E-07,-1.91454E-09,50.7263,0.401577,144.76
10,-95,120,-0.00477479,0.000152834,-1.37845E-06,3.74005E-09,0.00377068,-0.000127378,1.19173E-06,-3.3173E-09,46.1612,0.0781362,125.251
10,-95,150,-0.00617793,0.000245668,-2.89608E-06,1.05227E-08,0.00545694,-0.000248783,3.18892E-06,-1.22297E-08,37.0509,13.4801,80.5898
10,-95,210,-0.0067231,0.000284916,-3.95652E-06,1.7832E-08,-0.00753177,0.000408447,-6.3973E-06,3.05561E-08,65.6715,23.1782,28.0372
10,-95,240,-0.00640289,0.000258926,-3.45428E-06,0.000000015,-0.00152476,7.49111E-05,-1.09706E-06,0.000000005,64.0991,31.384,18.6727
10,-95,270,-0.00338435,0.000082498,-6.08382E-07,1.37308E-09,-0.00157555,3.51646E-05,-2.38585E-07,5.05161E-10,119.349,0.566232,1.11238
10,-95,300,-0.0049516,0.00015419,-1.54655E-06,0.000000005,0.00444729,-0.000164231,1.78174E-06,-5.94167E-09,71.9432,7.42136,39.674
10,-95,330,-0.00416906,0.000107895,-8.74224E-07,2.25909E-09,0.00526742,-0.000172783,1.6339E-06,-4.70359E-09,82.1837,0.434009,48.2044
15,-95,0,-0.00441974,0.000120487,-0.000001031,2.79519E-09,0.0052039,-0.00016377,1.51113E-06,-4.27808E-09,88.4995,0.0382861,45.8811
15,-95,30,-0.00402559,0.000100151,-7.73382E-07,1.88909E-09,0.00491977,-0.000147266,1.27079E-06,-3.33975E-09,102.065,0.46423,56.1723
15,-95,60,-0.00373484,8.60795E-05,-6.08937E-07,1.35914E-09,0.000197725,2.95443E-05,-4.0869E-07,1.28372E-09,83.679,0.298095,116.713
15,-95,90,-0.00391965,0.00011025,-8.66337E-07,0.000000002,0.0032711,-9.60063E-05,7.76285E-07,-1.8652E-09,52.0894,0.0788025,145.284
15,-95,120,-0.003776,0.000130119,-0.000001571,0.000000006,0.00703107,-0.000297441,3.57721E-06,-0.000000013,64.4677,0.125117,99.233
15,-95,180,-0.0035749,0.00010899,-9.57503E-07,2.53044E-09,-0.00283464,4.66887E-05,-1.79883E-07,6.16966E-11,66.5897,0.0212119,72.9611
15,-95,210,-0.00576132,0.000232501,-3.06124E-06,1.28509E-08,-0.00579995,0.000281014,-3.92278E-06,1.66746E-08,58.8829,29.0758,30.8824
15,-95,240,-0.00670589,0.000283761,-3.94662E-06,1.77724E-08,-0.0023444,0.000123118,-1.89065E-06,8.9023E-09,60.9044,30.228,22.0037
15,-95,270,-0.00544983,0.000184013,-0.000001936,6.3743E-09,0.000330641,-1.11046E-05,1.13747E-07,-3.64267E-10,64.1202,47.0991,2.41845
15,-95,330,-0.00453002,0.000128335,-1.15737E-06,3.3558E-09,0.00564958,-0.000204667,2.14873E-06,-6.8878E-09,81.72,0.662239,44.2605
20,-95,0,-0.00373337,8.40442E-05,-5.31753E-07,8.86221E-10,0.00307431,-4.34645E-05,-2.21279E-07,0.000000003,79.9455,0.0775273,64.2203
20,-95,30,-0.0042506,0.0001113,-8.84412E-07,2.17357E-09,0.00421376,-0.000119852,9.81569E-07,-2.44754E-09,95.4622,0.53438,42.4066
20,-95,60,-0.00375164,8.60566E-05,-5.91126E-07,1.27084E-09,6.36313E-05,3.44638E-05,-4.61459E-07,1.44971E-09,79.8537,0.0668005,115.372
20,-95,90,-0.00192,2.93724E-05,-1.48587E-07,2.48815E-10,0.00355512,-7.80855E-05,5.32937E-07,-1.12602E-09,38.5047,4.55758,159.702
20,-95,120,-0.00444653,0.000140496,-1.24312E-06,3.30072E-09,0.00372398,-0.000123155,1.12315E-06,-0.000000003,46.6055,0.0891359,128.711
20,-95,150,-0.00415518,0.000136172,-1.22894E-06,3.30399E-09,0.00362288,-0.000107307,9.56933E-07,-2.59764E-09,33.2762,0.000708156,127.59
20,-95,180,-0.00427732,0.000115545,-9.13185E-07,2.20849E-09,0.0028148,-7.02083E-05,0.00000058,-1.49564E-09,15.1984,0.0178235,131.091
20,-95,210,-0.00733182,0.00033161,-4.66932E-06,2.03658E-08,0.00533079,-0.000274308,4.12472E-06,-1.86489E-08,36.0842,8.27165,73.5158
20,-95,240,-0.00706144,0.000314067,-4.58976E-06,2.17229E-08,-0.00546238,0.000379727,-6.78791E-06,3.53043E-08,58.0477,36.4161,17.9062
20,-95,270,-0.00642666,0.000260051,-3.47628E-06,1.5409E-08,-3.1109E-16,1.48321E-17,-2.16252E-19,9.88038E-22,70.6311,41.4418,0
20,-95,300,-0.00659402,0.000275122,-3.81694E-06,1.7295E-08,0.00862863,-0.000468432,7.30109E-06,-3.45683E-08,61.8687,25.4254,26.2325
20,-95,330,-0.00444467,0.000121663,-1.01289E-06,2.65589E-09,0.00396774,-0.000157541,1.68511E-06,-5.33676E-09,83.3796,0.173283,40.6802
25,-95,0,-0.00141046,-3.93659E-06,4.07583E-07,-2.0845E-09,0.00494737,-0.000195375,2.12085E-06,-6.85351E-09,104.591,0,43.1597
25,-95,30,-0.00374152,8.41509E-05,-0.000000537,0.000000001,-0.00370246,0.000082139,-5.08611E-07,9.12262E-10,153.317,0,4.71003
25,-95,60,-0.00338388,7.19342E-05,-4.4651E-07,8.81253E-10,0.00288453,-4.92717E-05,2.22755E-07,-2.47702E-10,132.902,0,115.511
25,-95,90,-0.000144938,2.35966E-06,-1.17073E-08,1.81509E-11,-0.00227153,3.81356E-05,-1.79578E-07,2.53325E-10,2.20506E-05,2.05189E-05,225.759
25,-95,120,-0.00377407,8.53372E-05,-5.48676E-07,1.06466E-09,0.00296132,-5.76093E-05,0.000000362,-7.12112E-10,18.3715,0,168.374
25,-95,150,-0.00317599,6.04333E-05,-0.000000327,5.33935E-10,0.00117166,-2.36542E-05,1.44285E-07,-2.60875E-10,10.083,0,163.82
25,-95,180,0.00376833,-8.50776E-05,5.46173E-07,-1.05819E-09,-0.00156231,1.85971E-05,-4.88567E-08,5.40972E-12,1.70703,0,260.383
25,-95,210,-0.00706615,0.000299146,-3.60108E-06,1.30828E-08,0.00073522,-0.000082707,1.39719E-06,-6.09173E-09,40.6742,8.87061,67.8059
25,-95,240,-0.00712038,0.000317078,-4.56969E-06,2.0913E-08,-0.00597508,0.000370836,-6.09987E-06,2.94754E-08,56.122,38.4773,17.261
25,-95,270,-0.00705892,0.000311425,-4.47036E-06,2.05712E-08,0.00574044,-0.000278532,4.07877E-06,-1.85676E-08,55.6123,53.8362,1.99737
25,-95,300,-0.00418738,0.000107669,-0.000000819,0.000000002,0.00610726,-0.000224454,2.33637E-06,-7.28306E-09,124.209,25.3994,58
25,-95,330,-0.00526916,0.000171105,-1.73319E-06,5.44142E-09,0.0041262,-0.000154678,1.56825E-06,-4.71277E-09,82.8273,0,35.6488
30,-95,0,0.00124291,-7.92944E-05,0.000000948,-3.0651E-09,0.00236454,-2.41564E-05,-1.42853E-07,1.27663E-09,153.807,0,104
30,-95,30,-0.00331043,9.55735E-05,-8.54395E-07,2.33835E-09,-0.00512515,0.000157373,-1.37406E-06,3.62073E-09,137.39,0,60.7832
30,-95,60,-0.00346664,7.56601E-05,-0.000000483,0.000000001,0.00294943,-5.14041E-05,2.33092E-07,-2.42348E-10,132.411,8.84508E-06,112.528
30,-95,90,-0.00255889,6.91482E-05,-5.56584E-07,1.34955E-09,0.00169757,-6.59018E-05,0.000000587,-1.47293E-09,65.2991,0,132.982
30,-95,120,-0.00181604,4.38545E-05,-3.04596E-07,6.27606E-10,-0.00161666,1.29106E-05,1.08281E-08,-1.43995E-10,86,0,106.254
30,-95,150,-0.000224445,0.000003943,-2.11088E-08,3.53124E-11,-0.00144598,1.90203E-05,-5.91078E-08,3.18379E-11,1.07316E-06,0,254.981
30,-95,180,-0.000245081,8.80349E-06,-4.21975E-08,5.23461E-11,-0.00152224,1.47562E-05,-4.85732E-08,5.14362E-11,16,0,287.33
30,-95,210,0.00246068,-3.62767E-05,1.52072E-07,-1.92393E-10,0.00220445,-0.000032994,1.40056E-07,-1.78901E-10,8.27452,0,223.31
30,-95,240,-0.00925827,0.00053761,-1.01567E-05,6.0301E-08,0.00737127,-0.00032197,3.74905E-06,-0.000000011,88,81.3555,54
30,-95,270,-0.007694,0.000373004,-6.0251E-06,3.22914E-08,6.36263E-15,-3.88069E-16,7.09148E-18,-4.01274E-20,52.4673,58.8721,0
30,-95,300,-0.00704212,0.000310082,-0.000004422,2.00715E-08,0.00648045,-0.000388816,6.28523E-06,-0.00000003,59.0749,34.5406,18.239
30,-95,330,-0.00563352,0.000196882,-2.11135E-06,0.000000007,-0.00596769,0.000214457,-2.19083E-06,6.75386E-09,129.899,0,59.6502
35,-95,0,-0.00547927,0.000186899,-2.03717E-06,7.23646E-09,0.00759549,-0.000345644,4.47252E-06,-1.74659E-08,91.1563,0,33.569
35,-95,30,-0.00467019,0.000136384,-1.22983E-06,3.42472E-09,0.00537375,-0.000173249,0.000001588,-4.39258E-09,94.0631,0,48.0342
35,-95,60,-0.00278584,7.07403E-05,-6.00127E-07,1.59145E-09,0.00490465,-0.000144123,1.20422E-06,-0.000000003,63.8968,0,138.484
35,-95,90,-0.00203962,5.65833E-05,-3.98292E-07,8.12019E-10,-0.00345021,7.18673E-05,-4.29769E-07,7.90613E-10,59.3872,0,193.924
35,-95,120,0.000442693,-8.60021E-06,5.09071E-08,-9.41545E-11,-0.00165967,2.31974E-05,-7.64712E-08,4.03393E-11,0.000001211,0,234.256
35,-95,150,-0.0031069,5.78344E-05,-3.06127E-07,4.89031E-10,0.00121684,-2.41556E-05,1.4305E-07,-2.51126E-10,9.52704,0,170.356
35,-95,180,-0.00351411,7.39856E-05,-4.42923E-07,8.00253E-10,0.000360942,-0.000009811,6.41462E-08,-1.12272E-10,5.08717,0,151.486
35,-95,210,-0.00226652,0.000030779,-1.18853E-07,1.38511E-10,-0.00137729,1.85862E-05,-0.000000075,9.14626E-11,15.9986,0,237.499
35,-95,240,-0.00739796,0.000342281,-5.14506E-06,2.49318E-08,0.00487439,-0.000130102,4.76498E-07,3.65234E-09,102,32.0106,58.7718
35,-95,270,-0.00750282,0.000351794,-5.33971E-06,2.5844E-08,-6.34683E-16,2.94223E-17,-4.23704E-19,1.92949E-21,56.6128,55.0898,0
35,-95,300,-0.00771002,0.000374196,-6.03555E-06,3.23108E-08,0.00860737,-0.00064108,1.29834E-05,-0.000000078,51.6009,45.0743,15.1515
35,-95,330,-0.00479561,0.000139028,-1.17822E-06,3.16545E-09,0.00399184,-9.40923E-05,5.74134E-07,-7.84785E-10,104.386,0,84
40,-95,0,-0.00420851,0.000115069,-9.36804E-07,2.32769E-09,0.00267733,-7.68631E-05,0.000000582,-1.29271E-09,80.8084,0,49.999
40,-95,30,-0.00321164,0.000113852,-1.30423E-06,4.58648E-09,0.00478516,-0.000201332,2.29824E-06,-7.77184E-09,98.5459,0,107.062
40,-95,60,-0.00375401,8.48361E-05,-5.44273E-07,1.05087E-09,-0.0012914,6.18528E-05,-6.06271E-07,1.63275E-09,105.794,0,147.144
40,-95,90,-0.0011648,2.44448E-05,-1.23673E-07,1.78545E-10,0.000494165,-1.29981E-05,7.47158E-08,-1.16918E-10,55.9344,0,192.613
40,-95,120,4.29349E-17,-4.80148E-19,1.58046E-21,-1.59472E-24,-0.000126122,-4.13894E-07,2.70671E-09,-2.05375E-12,0,0,259.423
40,-95,150,-0.0010188,2.21447E-05,-1.12102E-07,1.60476E-10,-0.000590152,0.000002625,1.0208E-08,-3.51605E-11,61.2842,0,130.508
40,-95,180,-0.00228891,6.62556E-05,-4.92718E-07,1.06539E-09,0.00135884,-3.63007E-05,0.000000284,-6.51062E-10,23.2813,0,129.157
40,-95,210,-0.00622363,0.000252443,-2.88482E-06,9.91024E-09,-0.00381875,0.000084796,-4.47411E-07,2.71365E-10,44.99,26.1038,51.149
40,-95,240,-0.00856594,0.000458524,-7.9823E-06,4.45545E-08,-0.00766513,0.00045893,-7.57528E-06,3.72645E-08,45.977,46.427,21.0266
40,-95,270,-0.00798952,0.000399005,-6.47114E-06,3.3563E-08,0.00243596,-0.000275829,6.04668E-06,-3.61403E-08,49.8346,42.5801,19.8791
40,-95,300,-0.00687863,0.000295859,-4.15121E-06,1.93506E-08,0.00445167,-0.000235724,3.78823E-06,-0.000000019,60.6575,52.3629,0.156289
40,-95,330,-0.00680521,0.000288337,-3.89541E-06,1.64265E-08,0.00515484,-0.000195769,2.04469E-06,-6.25429E-09,66.5458,16.7092,32.2607
45,-95,0,-0.00631981,0.00024911,-3.16191E-06,0.000000013,0.0072981,-0.000319645,3.98038E-06,-0.000000015,69.6597,20.2914,33.3662
45,-95,30,-0.00477616,0.000140504,-1.27422E-06,3.66131E-09,0.000947995,2.35138E-05,-5.72102E-07,2.41201E-09,62.5538,0,83.405
45,-95,60,-0.00385713,8.94624E-05,-5.89657E-07,1.17212E-09,-0.00152142,6.67447E-05,-6.37739E-07,1.69604E-09,103.397,0,148.168
45,-95,90,-0.00232707,4.15968E-05,-2.02601E-07,2.85694E-10,0.00284118,-4.78105E-05,2.13314E-07,-2.35645E-10,149.626,4.82518E-05,117.37
45,-95,120,-0.00171859,4.15325E-05,-2.53235E-07,4.4643E-10,0.00146555,-3.13383E-05,1.90704E-07,-3.4245E-10,33.3894,0,174.629
45,-95,150,-0.00329966,6.52314E-05,-3.66684E-07,6.22079E-10,0.0017242,-3.34233E-05,1.99186E-07,-3.59501E-10,11.0068,0,171.318
45,-95,180,-0.0040714,9.93129E-05,-6.88837E-07,1.44193E-09,0.001051,-2.31489E-05,1.49514E-07,-2.82146E-10,6.40941,0,152.474
45,-95,210,-0.00796851,0.000421582,-7.00894E-06,3.61305E-08,-0.00247673,-1.69197E-05,1.91813E-06,-1.52775E-08,44.3467,30.415,48.0227
45,-95,240,-0.00969579,0.000579646,-1.08086E-05,6.24621E-08,-0.00275684,0.000337446,-0.000008056,5.23684E-08,58.7062,54.7245,4.07918
45,-95,270,-0.00838449,0.00043903,-7.38665E-06,3.88919E-08,0.0017129,-0.000219694,4.89491E-06,-2.9194E-08,48.094,44.2365,20.9772
45,-95,300,-0.00830092,0.000430595,-7.24386E-06,0.000000039,0.00496783,-0.000308436,5.52907E-06,-3.02109E-08,46.6502,53.6781,12.9823
45,-95,330,-0.00854773,0.000460741,-8.23034E-06,4.75109E-08,0.00347323,-3.63782E-05,-1.81894E-06,2.12276E-08,47.2499,32.5515,35.7387
50,-95,0,-0.00624125,0.000241532,-2.92718E-06,0.000000011,0.00668549,-0.000298414,3.74242E-06,-1.40931E-08,64.3137,27.2655,32.3162
50,-95,30,-0.00414561,0.000107826,-8.14498E-07,1.94038E-09,0.0032759,-6.54945E-05,0.000000395,-7.85293E-10,104,0,111.981
50,-95,60,-0.00390213,0.000100531,-7.8793E-07,1.89577E-09,0.00101307,7.45132E-06,-2.23249E-07,7.8997E-10,69.8952,0,103.3
50,-95,90,-0.0013117,3.12291E-05,-2.35443E-07,5.29248E-10,-0.00142995,1.55673E-05,-7.94177E-08,1.67528E-10,123.215,0,217.646
50,-95,120,-0.00130258,3.02629E-05,-1.69835E-07,2.7212E-10,0.0010028,-2.13001E-05,1.22064E-07,-2.01782E-10,34.6664,0,184.682
50,-95,150,-0.00150097,3.91771E-05,-2.4822E-07,4.49622E-10,-0.00271344,5.19168E-05,-2.79762E-07,4.59297E-10,61.9999,0,214.84
50,-95,180,3.27618E-05,-2.44732E-05,2.57466E-07,-6.49056E-10,0.00292569,-7.61038E-05,5.3734E-07,-1.12725E-09,55.1556,0,181.061
50,-95,210,-0.00419183,0.000105275,-7.51787E-07,1.62025E-09,0.00204008,-4.61231E-05,3.45221E-07,-7.98206E-10,11.5112,0,122.896
50,-95,240,-0.00875877,0.000475664,-8.15858E-06,4.35438E-08,-0.000942549,-7.73575E-05,2.87306E-06,-2.07794E-08,43.9685,30.2955,42.9066
50,-95,270,-0.0086894,0.000471022,-8.17885E-06,4.44674E-08,0.000207042,-0.000118482,3.30371E-06,-2.22954E-08,49.2457,44.3215,21.0778
50,-95,300,-0.00852299,0.000454011,-7.85354E-06,4.37014E-08,0.00632387,-0.000521273,1.09827E-05,-6.71719E-08,50.9504,56.1442,7.47606
50,-95,330,-0.00630648,0.00024141,-2.71749E-06,0.000000009,-0.00518438,0.000153586,-9.53597E-07,-7.40369E-10,104,40.0457,58
55,-95,0,-0.00749333,0.000349039,-5.1644E-06,2.38215E-08,-0.0039297,0.000276589,-4.77069E-06,2.35388E-08,58.4539,3.96183E-07,65.6967
55,-95,30,-0.00506116,0.000155767,-1.41316E-06,3.90713E-09,0.000542806,2.73648E-05,-4.87216E-07,1.77218E-09,54.2847,0,90.9202
55,-95,60,-0.00280407,6.01303E-05,-3.72206E-07,7.38293E-10,0.00233731,-3.95389E-05,2.86493E-07,-7.52923E-10,115.272,0,195.492
55,-95,90,-0.00367892,9.00077E-05,-0.000000619,1.27845E-09,-0.00373713,8.42426E-05,-5.43937E-07,1.07587E-09,24.2972,0,246.295
55,-95,120,-0.00272296,4.44252E-05,-2.061E-07,2.88571E-10,0.00120392,-2.15098E-05,1.10383E-07,-1.67342E-10,8.14125,12.2405,202.019
55,-95,150,-0.00235613,3.32596E-05,-1.335E-07,1.61721E-10,-0.00113941,1.86026E-05,-7.63918E-08,9.06077E-11,3.91366,0,262.242
55,-95,180,-0.000715494,3.69283E-05,-3.22717E-07,7.50837E-10,-0.00350334,7.38876E-05,-4.4338E-07,8.04506E-10,43.9487,0,256
55,-95,210,-0.0039758,9.47035E-05,-6.41441E-07,1.31119E-09,0.00173427,-3.94138E-05,0.000000288,-6.40142E-10,9.79336,1.77904,126.655
55,-95,240,-0.00666493,0.000294371,-3.65605E-06,1.36396E-08,0.00357787,-0.000171658,2.30341E-06,-9.11583E-09,35.2564,10.6263,74.6027
55,-95,270,-0.00923669,0.000528502,-9.53129E-06,5.34543E-08,0.00118527,-0.000167799,4.36486E-06,-2.95969E-08,36.2494,52.5787,27.5051
55,-95,300,-0.00841106,0.000442665,-7.55564E-06,4.19451E-08,3.95339E-16,-2.58714E-17,4.98138E-19,-2.94144E-21,58.9505,57.3207,0
55,-95,330,-0.00889973,0.000495496,-8.90578E-06,5.01675E-08,0.00365909,-0.000095018,-1.25689E-07,8.43049E-09,42.2963,44.0841,31.1473
60,-95,0,-0.0067736,0.000283091,-0.000003699,0.000000015,-0.001933,0.000138026,-2.28117E-06,1.04633E-08,59.679,0,67.1023
60,-95,30,-0.0033766,7.91796E-05,-5.03117E-07,8.89662E-10,0.00324246,-6.21463E-05,3.12755E-07,-3.75014E-10,111.951,0,102.812
60,-95,60,-0.00420745,0.000106061,-7.60226E-07,1.64455E-09,0.000977208,-3.36011E-06,-2.11431E-08,7.05721E-11,58.0224,0,163.584
60,-95,90,-0.00307116,6.74417E-05,-4.12766E-07,7.56105E-10,0.000505519,9.33724E-06,-1.25219E-07,3.08448E-10,69.4506,0,136.853
60,-95,120,-0.00307146,6.80594E-05,-4.3719E-07,8.48869E-10,0.000805617,-6.38487E-07,-3.16675E-08,7.58955E-11,94,38,196.141
60,-95,150,-0.00310404,5.77263E-05,-3.05259E-07,4.8717E-10,-0.00111943,1.75509E-05,-6.74117E-08,6.95348E-11,2.51757,7.17984E-09,257.678
60,-95,180,-0.00341199,6.97481E-05,-4.05421E-07,7.11211E-10,0.00157255,-3.27149E-05,2.06404E-07,-3.90702E-10,8.95891,0.0441604,158.437
60,-95,210,-0.00262119,8.67199E-05,-7.37317E-07,1.82291E-09,0.00146105,-0.000047174,4.28918E-07,-1.12992E-09,31.8975,0,109.079
60,-95,240,-0.00412205,0.000209667,-3.47155E-06,1.75869E-08,-0.00392138,0.000111898,-1.37651E-06,6.17449E-09,62,55.1409,110
60,-95,270,-0.01,0.000626025,-0.000012751,8.39335E-08,-0.00386648,0.000181475,-1.38776E-06,-6.09559E-09,37.2029,64.7227,16.2713
60,-95,300,-0.00887725,0.000490772,-0.000008652,4.82299E-08,4.14695E-17,-3.00255E-18,6.05373E-20,-3.63842E-22,53.6702,64.3856,0
60,-95,330,-0.0091171,0.000518862,-9.47927E-06,5.46589E-08,0.00894653,-0.000558856,9.84909E-06,-5.26036E-08,50.0081,48.4891,20.3478
65,-95,0,-0.00809569,0.000408385,-6.64564E-06,3.47278E-08,0.00834052,-0.000418768,5.96135E-06,-2.54735E-08,49.6656,47.704,28.0701
65,-95,30,-0.00146938,3.42192E-05,-3.18428E-07,9.38426E-10,0.00481898,-0.000139497,1.14817E-06,-2.85193E-09,81.0738,0,142.626
65,-95,60,-0.00148044,4.08033E-05,-4.32357E-07,1.41543E-09,0.00543251,-0.000176815,1.63638E-06,-4.57056E-09,87.1089,0,126.996
65,-95,90,-0.00326766,0.000108418,-1.07658E-06,3.22774E-09,-0.003214,7.13082E-05,-6.33884E-07,1.9486E-09,148.498,0,170
65,-95,120,-0.00129678,3.99232E-05,-4.23562E-07,1.33474E-09,-0.00388426,9.05176E-05,-5.94425E-07,1.1559E-09,69.9517,64.1344,64.0155
65,-95,150,4.45099E-05,-2.23366E-05,2.2208E-07,-5.30824E-10,-0.00182379,4.95255E-05,-3.50471E-07,7.19922E-10,88.9448,0,266
65,-95,180,-0.00377668,8.63748E-05,-5.75593E-07,1.1652E-09,0.00132656,-5.15385E-06,-7.13771E-08,2.88587E-10,71.699,0,246.196
65,-95,210,-0.00222707,7.04449E-05,-5.6123E-07,1.2921E-09,-6.07221E-05,-1.61346E-05,2.05407E-07,-5.86808E-10,46.5939,0,99.1683
65,-95,240,-0.00449176,0.000141848,-1.2642E-06,3.44507E-09,-0.00548534,0.000180718,-1.69294E-06,4.7865E-09,74,3.16639,130.658
65,-95,270,-0.00999991,0.0006257,-1.27208E-05,8.3587E-08,-0.00751198,0.000516228,-9.53993E-06,5.17113E-08,38.6257,65.4156,16.3343
65,-95,300,-0.00999958,0.000625002,-1.26967E-05,8.28576E-08,0.00292259,-0.000195822,4.00946E-06,-2.5697E-08,41.1935,74.8627,3.99089
65,-95,330,-0.0063609,0.000268191,-3.49982E-06,1.40937E-08,0.0036496,-0.000221619,3.29429E-06,-0.000000014,70.0316,38.1671,14.412
70,-95,0,-0.00813378,0.000407225,-0.000006337,3.05293E-08,-0.00344479,0.000280647,-5.22136E-06,2.73282E-08,66.0861,1.0662,60.646
70,-95,30,-0.00559851,0.000187786,-0.000001791,5.15537E-09,-0.00225321,0.000054546,-0.000000324,4.57669E-10,1.87256,5.4842E-07,146.722
70,-95,60,-0.00025559,5.70994E-06,-3.88739E-08,8.27031E-11,-0.00272814,5.79205E-05,-3.44668E-07,6.10961E-10,2.55458E-07,0,174.583
70,-95,90,-0.00178257,2.76116E-05,-9.22004E-08,8.97716E-12,0.00225626,-2.26309E-05,-1.03474E-07,9.41146E-10,152.596,7.26927E-05,109.997
70,-95,120,-0.00561162,0.000194925,-2.12867E-06,7.43642E-09,0.00413531,-9.92401E-05,0.00000056,-3.1206E-10,77.2669,59.8215,59.1703
70,-95,150,-0.00303913,0.000078239,-5.49287E-07,1.14457E-09,0.0030322,-5.52985E-05,2.85289E-07,-4.39706E-10,26.3387,0.18693,229.919
70,-95,180,-0.00381581,8.72352E-05,-5.67082E-07,1.11254E-09,-0.00318561,0.000062077,-3.66172E-07,6.78948E-10,10.8976,0,246.779
70,-95,210,0.000192518,-3.05584E-05,3.2328E-07,-8.45546E-10,0.00335376,-8.90145E-05,6.51693E-07,-1.42775E-09,55.3075,0,174.313
70,-95,240,-0.00467256,0.000196813,-2.24167E-06,7.55435E-09,0.00446992,-0.000158334,1.7371E-06,-5.85261E-09,26.0942,14.6399,89.5243
70,-95,270,-0.01,0.000623155,-1.25014E-05,8.48791E-08,-0.00762516,0.000496013,-8.03348E-06,2.91252E-08,33.0148,72.6399,17.2245
70,-95,300,-0.00999993,0.000623529,-1.24361E-05,7.78316E-08,-0.000222016,1.59504E-05,-0.000000351,2.42152E-09,43.1747,77.3381,1.91083
70,-95,330,-0.00999988,0.0006239,-1.24741E-05,7.80517E-08,0.00613325,-0.000343821,5.11677E-06,-2.14917E-08,41.9592,61.2849,19.6618
75,-95,0,-0.00972969,0.00058861,-1.14194E-05,7.1238E-08,-0.00339473,0.000453161,-1.21915E-05,8.98511E-08,35.354,48.9861,44.5267
75,-95,30,-0.00121758,3.24838E-05,-3.43139E-07,1.10759E-09,0.00521691,-0.000163061,1.44922E-06,-3.88721E-09,94.0244,0,133.322
75,-95,60,-0.00404076,9.78245E-05,-6.73415E-07,1.39906E-09,-0.00217172,5.05021E-05,-3.09744E-07,5.57129E-10,2.44012,0,172.095
75,-95,90,0.000348891,-0.000029145,2.70455E-07,-6.39104E-10,0.00293371,-5.17159E-05,2.57602E-07,-3.82322E-10,65.0424,0,237.971
75,-95,120,-0.00576138,0.000205544,-2.29969E-06,8.17096E-09,0.00407887,-9.60912E-05,0.000000519,-1.59376E-10,74.9745,63.1329,59.3222
75,-95,150,-0.00308791,7.99548E-05,-5.65362E-07,1.18713E-09,4.89824E-05,1.52099E-05,-0.000000136,2.84692E-10,58.8637,29.0352,157.987
75,-95,180,-0.00338594,6.90142E-05,-3.99896E-07,6.99274E-10,0.00328537,-6.50127E-05,3.65656E-07,-6.20592E-10,14,10.0378,217.359
75,-95,210,-0.00228339,6.83738E-05,-5.35612E-07,1.22283E-09,-0.00187528,1.79716E-05,3.11446E-09,-2.02953E-10,65.8567,0,84.2279
75,-95,240,-0.0072627,0.000358855,-0.000004971,2.0659E-08,0.000726566,-0.000113177,2.1811E-06,-1.07273E-08,35.6183,33.4549,62.5325
75,-95,270,-0.00999982,0.000618603,-1.19345E-05,7.01361E-08,-0.00987367,0.000684853,-1.28704E-05,6.75054E-08,35.0681,72.5959,17.9286
75,-95,300,-0.00999975,0.000617623,-1.19759E-05,7.68693E-08,0.0019187,-0.000155389,3.77914E-06,-2.85E-08,31.6688,88.4308,4.90056
75,-95,330,-0.00865573,0.000951314,-2.68443E-05,2.20207E-07,0.00936689,-0.000581335,1.24273E-05,-8.51398E-08,5.43369,58.7464,65.9998
80,-95,0,-0.0065675,0.000259556,-2.91564E-06,9.88335E-09,0.00553718,-0.000187059,1.90993E-06,-6.24804E-09,72.059,8.91426,127.559
80,-95,30,-0.00531399,0.000193777,-0.000001979,6.06125E-09,7.18974E-05,4.60987E-05,-7.49888E-07,2.84771E-09,43.0743,20.2155,83.4966
80,-95,60,-0.000485542,7.4415E-06,-3.45496E-08,4.99609E-11,-0.00215411,3.99462E-05,-0.000000208,3.23582E-10,1.3977E-06,0,215.338
80,-95,90,-0.00426,0.000109089,-7.94278E-07,1.74528E-09,-0.00381483,0.000103835,-7.8789E-07,1.78948E-09,101.041,0,169.537
80,-95,120,-0.000671051,1.45893E-05,-6.71694E-08,8.55568E-11,0.000507771,-1.01984E-05,4.85939E-08,-6.41961E-11,38.1666,0,220.414
80,-95,150,-0.00210324,6.14057E-05,-4.53324E-07,0.000000001,0.0025221,-6.20619E-05,4.36115E-07,-9.16103E-10,33.7557,8.64281,154.475
80,-95,180,-0.00357347,7.65065E-05,-4.65753E-07,8.55717E-10,0.00250781,-4.86381E-05,2.97425E-07,-5.61913E-10,12.1372,0.912164,166.655
80,-95,210,-0.0020021,5.73724E-05,-0.00000043,9.36975E-10,-0.00198468,2.17052E-05,-3.51564E-08,-8.84035E-11,69.9999,0,84.2667
80,-95,240,-0.0056362,0.000190492,-1.83051E-06,5.30843E-09,0.00341075,-0.000074106,5.47847E-07,-1.2938E-09,12.7773,1.01278,123.504
80,-95,270,-0.00999954,0.000637944,-1.27241E-05,7.6404E-08,-0.00999623,0.000670052,-1.16436E-05,0.000000048,35.7823,74.3205,18.4473
80,-95,300,-0.00999989,0.000619695,-1.21261E-05,7.49107E-08,0.00096632,-0.000102342,2.99446E-06,-2.62585E-08,51.2956,68.6302,7.85066
80,-95,330,-0.00650593,0.000253593,-2.81069E-06,9.40169E-09,0.00244449,-0.000065095,7.2476E-07,-2.70348E-09,4.17696,48.5486,79.8035
85,-95,0,-0.00615848,0.000228323,-2.40109E-06,7.5883E-09,0.00580202,-0.000205367,2.19665E-06,-7.53197E-09,75.6927,18.0953,120.163
85,-95,30,-0.00589838,0.000208441,-2.09451E-06,6.35182E-09,-0.00165495,4.11193E-05,-2.26883E-07,2.3475E-10,2.34419,6.18949,146.099
85,-95,60,-0.00423743,0.000113645,-8.61486E-07,0.000000002,-0.00289489,8.81163E-05,-7.09545E-07,1.67736E-09,89.6652,0,161.603
85,-95,90,-0.0039839,0.000124646,-1.07427E-06,2.75841E-09,-0.00307444,0.000102303,-9.14112E-07,2.40356E-09,57.9624,1.73186,126.736
85,-95,120,-0.00379567,0.000115556,-9.66423E-07,2.40547E-09,-0.00369074,0.000109865,-9.16265E-07,2.2846E-09,63.4616,3.95705,136.461
85,-95,150,-0.00202789,2.46389E-05,-8.51229E-08,8.87543E-11,-0.000737892,1.32042E-05,-5.35253E-08,6.09418E-11,6.89373,1.88436,266.484
85,-95,180,-0.00359004,7.72176E-05,-4.72261E-07,8.71698E-10,0.00145505,-3.70261E-05,2.56261E-07,-5.15937E-10,3.87011,29.1064,151.859
85,-95,210,-0.00178778,5.69561E-05,-4.38383E-07,0.000000001,0.000681307,-2.88184E-05,2.56409E-07,-6.15701E-10,41.4357,0,119.729
85,-95,240,-0.000626197,-1.38968E-05,2.29583E-07,-6.91175E-10,0.00405999,-9.90895E-05,6.86342E-07,-1.42973E-09,44.1256,1.67854E-08,175.92
85,-95,270,-0.01,0.000596428,-9.53723E-06,3.06906E-08,-0.00922763,0.000560075,-7.45749E-06,1.73505E-10,29.0175,83.3195,19.2208
85,-95,300,-0.01,0.000601821,-1.02576E-05,5.23536E-08,0.0048165,-0.000907923,3.45356E-05,-0.00000036,28.1943,98.6657,3.83122
85,-95,330,-0.01,0.000609977,-1.10647E-05,5.75889E-08,0.00099616,0.000152984,-9.8458E-06,1.20371E-07,31.289,80.2031,19.3905
90,-95,0,-0.01,0.00061475,-1.16287E-05,7.13678E-08,-0.00362039,0.000249291,-4.07541E-06,1.66418E-08,31.2197,47.4864,58.038
90,-95,30,-0.00392088,0.000123135,-1.06251E-06,2.72883E-09,-0.000838836,5.03682E-05,-5.50307E-07,1.6051E-09,49.6902,0,103.151
90,-95,60,-0.00202387,3.82445E-05,-2.03473E-07,3.44784E-10,0.00146519,-8.14567E-06,-5.6532E-08,2.71913E-10,184.379,0,160
90,-95,90,-0.00192933,3.50101E-05,-1.7443E-07,2.66977E-10,0.00176627,-1.68758E-05,1.8091E-08,8.00339E-11,122,23.9995,142.359
90,-95,120,0.00120528,-3.12273E-05,1.88125E-07,-3.20361E-10,0.00198663,-2.66077E-05,9.98508E-08,-1.12105E-10,109.21,1.72889E-05,332
