x,y,phi,kappa_end,vw_x,vw_y,v,xtol,ytol,phi_tol,kappa_tol,q1,q2,q3,q4,q5,q6,q7,q8,q9,q10,q11,
-30,-30,3.66519142918809,0,0,0,5,-0.00499433357592238,0.00757835109432392,0.0495619285172944,-0.0138921255135142,0.00195992596952264,-2.35510431178217e-05,8.46202626006662e-08,-8.83555895027707e-11,-0.00396889815401949,9.71731426063823e-05,-6.98456061873317e-07,1.54037720014241e-09,126.996158419407,0.294539844923983,49.9153746853317
-30,-25,3.14159265358979,0,0,0,5,-0.0113143247664027,-0.0166805151759561,0.0432702584082851,0.0139481871905405,-0.00170131370991385,1.52366248350258e-05,-1.95767301938753e-08,1.19077061152226e-10,0.00681595516478641,-0.000284044951084649,3.43955872216959e-06,-1.27154469601377e-08,106.069764414331,0.122778612295233,30.0584425430894
-30,-25,3.66519142918809,0,0,0,5,-0.00650553336863524,0.00742267006001285,0.0499325861675377,-0.0139225705161385,0.00186185271981602,-2.05838423752274e-05,5.82862390093799e-08,-1.9593915738866e-11,-0.00402290312445871,9.94469999584061e-05,-7.18748365749471e-07,1.59056063025413e-09,124.494193691554,0.255385562241887,48.4521789677081
-30,-20,3.14159265358979,0,0,0,5,-0.00842773176015044,-0.0123283345466056,0.042982846139616,0.0139048184302055,-0.000466600168026505,-2.24092892612678e-05,3.47881992949068e-07,-1.11767221759048e-09,-0.00366442492545579,9.32874032791843e-05,-7.12529160045222e-07,1.6866443151294e-09,150.587035639559,1.12857221195276,6.82103562507796
-30,-20,3.66519142918809,0,0,0,5,-0.0251349027403336,0.026097917143705,0.0519791528254498,-0.01409450097843,0.00189841907549536,-2.1699139852891e-05,6.95336567546494e-08,-6.15852780558469e-11,-0.00432406437915532,0.000112722992126491,-8.39371045633309e-07,1.89131576399828e-09,122.550342171671,0.0593031966134885,45.0757383664406
-30,-15,3.14159265358979,0,0,0,5,-0.0295419208542427,-0.0323334173803822,0.0443823059495636,0.0140910121176515,-0.000377439989735996,-2.30560114341227e-05,3.33171642077307e-07,-1.02758629112286e-09,-0.00447606408363848,0.000122665847720504,-9.75614581155062e-07,2.36536771478269e-09,157.0309099055,1.26403646640072,6.23823675736692
-30,-10,3.14159265358979,0,0,0,5,-0.0110173814829011,-0.0114232744224019,0.0431727586006723,0.0140166349193055,-0.000455209921059075,-1.88974161320172e-05,2.79189723767276e-07,-8.6279077268139e-10,0.00457827770707954,-0.00012768608833689,1.02460870035474e-06,-2.49774846518652e-09,124.650280896157,0.157651456489654,44.1377712227322
-30,-5,3.14159265358979,0,0,0,5,0.0462623803388844,-0.161308247591204,0.0873611790774169,0.0161571575128186,-0.000580495370547735,-1.54826600198951e-05,2.49583433818351e-07,-7.81936656318734e-10,0.00463795874806497,-0.000130343321044572,1.05081472422391e-06,-2.56917970559118e-09,126.154336646479,0.120646282598159,43.2820170205288
-30,0,3.14159265358979,0,0,0,5,-0.00496818380230479,-0.00880034489204462,0.0434581198092499,0.0140951960871711,-4.22305676487025e-05,-1.87047903068315e-05,1.92752091797883e-07,-4.64607445760088e-10,0.00281094524704636,-6.85645657020541e-05,4.56007360607291e-07,-9.00528007903729e-10,155.633020844431,0.140473425757754,50.7511736980331
-30,5,3.14159265358979,0,0,0,5,-0.0392830932102051,0.231276158071996,0.0862941380385394,0.0203457019768557,-0.000702702942237763,-1.08498553076716e-05,1.95331364544016e-07,-5.94040290601499e-10,0.00433485900081102,-0.000113443577155889,8.51595591537486e-07,-1.93922751452004e-09,131.275963295722,0.067034880390964,45.6339995230644
-30,10,3.14159265358979,0,0,0,5,-0.0287663173958492,-0.140427053958096,0.087768841301878,-0.0141094880727547,0.000466589980277855,1.35255207739463e-05,-1.91663874466613e-07,5.30713571439686e-10,-0.00398026859596976,9.52892755425114e-05,-6.49875314526842e-07,1.33907860381653e-09,128.276936609319,0.0220959405909394,48.4762009694441
-30,15,3.14159265358979,0,0,0,5,-0.0111283251182996,0.0128847082382606,0.043271835364239,-0.0140196802583228,0.000546605778986014,1.74348571277494e-05,-2.76864625033306e-07,8.74534172286334e-10,-0.00451237232534276,0.00012402887788837,-9.81057095511782e-07,2.35749219485048e-09,119.378932958781,0.157942374676112,43.2146201129329
-30,20,2.61799387799149,0,0,0,5,-0.00829803910688653,-0.00747060301649327,0.0503095593382423,0.0139591034056625,-0.00174284835529198,1.70584442129886e-05,-2.78781491542296e-08,-5.69039549664795e-11,0.0038780485186574,-9.20938049171126e-05,6.3624837585329e-07,-1.34248311236031e-09,120.964803192603,0.211040010495004,48.4252231591348
-30,20,3.14159265358979,0,0,0,5,-0.00970489952264941,-0.00463739369896388,0.0427380475752592,0.0140272766316326,-0.000666270201100263,-9.77258106232525e-06,1.67764408903504e-07,-4.88495869917429e-10,0.00403062389254369,-9.87252184318169e-05,6.934317001677e-07,-1.47732155883125e-09,140.813189071465,0.141849559202175,54.7533107739098
-30,25,2.61799387799149,0,0,0,5,-0.00664280507442072,-0.00733006614694531,0.0499997813591362,0.0139369654160912,-0.00182363302645459,1.94955998214718e-05,-4.95605914141682e-08,-1.00978713094837e-12,0.00384200296398281,-9.06223227360559e-05,6.23666224028859e-07,-1.31280367265933e-09,123.466984589451,0.236649314326045,49.8999575064386
-30,25,3.14159265358979,0,0,0,5,-0.00967476130475831,-0.00407485278892494,0.0426509387461866,0.0140192021481121,-0.000892717070654452,-4.49418094366702e-06,1.31181177219488e-07,-4.11506183130454e-10,0.00429905998611257,-0.000112313830098045,8.41958085537488e-07,-1.91526366613391e-09,142.806008297117,0.143005625203402,53.2039069998799
-30,30,2.61799387799149,0,0,0,5,0.235897924527581,0.0174702386290306,0.0660596199040429,0.0146723509277985,-0.00206181171411047,2.65967231547065e-05,-1.11662871717861e-07,1.6385385491528e-10,0.00408140482935169,-0.000101962109540234,7.2435762692384e-07,-1.5542352661359e-09,127.77667014529,0.249592445024737,47.775642156126
-25,-30,3.14159265358979,0,0,0,5,-0.0447029864554622,-0.0446879199226338,0.0447360238046102,0.0141420728865943,-0.000641137356231717,-2.11100868537927e-05,3.80132152857854e-07,-1.31862578621546e-09,-0.00529693089225484,0.00016843785645584,-1.52302208809213e-06,4.15615068966828e-09,139.249910823064,0.598439548985642,3.81896218267704
-25,-30,3.66519142918809,0,0,0,5,-0.00771922172955897,0.00613722839914033,0.0500883431814998,-0.0139542720491401,0.00162505415968677,-1.41667702721297e-05,9.19260789943468e-09,9.21172680990143e-11,-0.00408498047069624,0.000102219856867129,-7.43613751804436e-07,1.6518822423445e-09,130.251818739464,0.224593477822236,49.4374424317468
-25,-30,4.18879020478639,0,0,0,5,0.000688530061722759,0.00955320010686123,0.038313955030457,-0.00932989807908093,0.00252095221072716,-4.17026017505681e-05,2.51540490295398e-07,-5.24393076648392e-10,-0.00290354743800988,5.99679513520521e-05,-3.88064499712441e-07,7.97973900128246e-10,117.066545072769,0.559549981328005,51.2958261012808
-25,-25,3.14159265358979,0,0,0,5,-0.0124748490785969,-0.0163713774993042,0.0432345009524551,0.0139645288751654,-0.00114431703665709,1.91336938238065e-06,5.71757007731976e-08,5.00207603173288e-11,0.00689262125323345,-0.000290707633877835,3.54686066792262e-06,-1.31831873136216e-08,112.21890578259,0.106322803944382,30.2812667940999
-25,-25,3.66519142918809,0,0,0,5,-0.0268313910801083,0.023406312213929,0.0519974689979681,-0.0141016324010558,0.00160070225422488,-1.35996747324657e-05,7.05662659886829e-09,8.19716465652162e-11,-0.00434281639470458,0.000113605036351965,-8.47644175602458e-07,1.91233067245557e-09,128.447971671183,0.0505960205431344,46.4906930220805
-25,-20,2.61799387799149,0,0,0,5,0.0111589030899211,0.00436928451972562,0.0452824500782865,-0.013398949007361,-0.00693395532642547,0.000298476503084986,-3.77286409980304e-06,1.4621274035567e-08,-0.00633468710232606,0.000258127953578871,-3.17371270824698e-06,1.21174098805542e-08,6.90290623447671,0.0775231983318881,74.8742579509798
-25,-20,3.14159265358979,0,0,0,5,-0.0129542789617325,-0.0137842099215888,0.0430683693516682,0.0139740475889612,-0.00107756532521119,5.0899922117537e-06,-3.08712753534818e-08,4.83257712368303e-10,0.00692072352657848,-0.000293622261334367,3.58944859384852e-06,-1.3343422569339e-08,119.085182343054,0.12980775361128,31.7526371843378
-25,-20,3.66519142918809,0,0,0,5,-0.00998613670482484,0.00647006212649615,0.0505060036757468,-0.0139869453023688,0.00132395357761224,-5.91225528394293e-06,-5.79838447375332e-08,2.55089704013174e-10,-0.00393928140713291,9.47776314878531e-05,-6.60052899527245e-07,1.40046925389136e-09,125.41804751397,0.181278829508633,48.4230937115417
-25,-15,2.61799387799149,0,0,0,5,-0.026125881795668,-0.0328275238277378,0.0519723768867961,0.0139685157120955,-0.00125414547649887,-9.5475300028883e-07,1.73403555864377e-07,-6.73533650306017e-10,-0.00306132987114274,7.69871849491552e-05,-5.84173040050871e-07,1.37774691007614e-09,138.990364168443,0.651458748087331,2.62314966834999
-25,-15,3.14159265358979,0,0,0,5,-0.0105404179963386,-0.0128661926203826,0.0431620788686455,0.0140013949539339,-0.000207814535934887,-2.54773581599778e-05,3.35313916931048e-07,-1.02345473764293e-09,0.00493127188032916,-0.000148405118446272,1.28800994206008e-06,-3.39998024961965e-09,125.765204103177,0,40.8426555852601
-25,-15,3.66519142918809,0,0,0,5,-0.0106053203576693,0.00720077867959645,0.0506069373273093,-0.013988975761998,0.00123558481391417,-3.42806562663361e-06,-7.91185647984515e-08,3.0813453426174e-10,-0.00394027569776492,9.48150548337579e-05,-6.60451629167111e-07,1.40157214912203e-09,123.117275336018,0.174711728569186,47.1542289781497
-25,-10,2.61799387799149,0,0,0,5,-0.0108922209073476,-0.0128606779085807,0.0504459223565932,0.0138049225803068,-0.0020643871783533,2.98332163900159e-05,-1.99253838255467e-07,7.43251210328986e-10,0.00622769590993783,-0.000239288078789394,2.72032125273182e-06,-9.52210164059155e-09,107.852928044417,0.179816493608571,29.0789610743405
-25,-10,3.14159265358979,0,0,0,5,-0.00868740189224226,-0.0101117394770291,0.0430241887868439,0.0140141629962622,-7.53160425088091e-05,-2.53738257225455e-05,2.96861547708493e-07,-8.14691016236091e-10,0.00412565662987642,-0.000103765573151906,7.5113699292288e-07,-1.6519533440828e-09,129.263716668486,0.0537686294546144,47.4584535353522
-25,-10,3.66519142918809,0,0,0,5,-0.0110384274398712,0.00828401977878457,0.050639611385364,-0.0139786178347516,0.00121323680923723,-2.4349276589478e-06,-9.21099541607863e-08,3.55639099963416e-10,-0.00412032630187464,0.00010379090414968,-7.58242714310037e-07,1.68909483744711e-09,121.184346705376,0.184891998252854,44.4967359928789
-25,-5,2.61799387799149,0,0,0,5,-0.0112173843218173,0.0198942109723532,0.0500299459989617,0.0010342970060515,-0.00226359454167096,2.08784735982744e-05,3.96845047795214e-07,-3.39980704040458e-09,-0.00537563765727647,0.000230528435192317,-2.72121241966611e-06,9.57699599247683e-09,47.8141306374072,0.892595406776594,85.8763342705581
-25,-5,3.14159265358979,0,0,0,5,-0.00916605267038406,-0.0101458842856612,0.0429044528494367,0.0139506217364203,9.98020778591013e-05,-2.98852099884729e-05,3.33277839976602e-07,-9.04102750117653e-10,-0.00362628116500105,8.61940670224991e-05,-6.11221146173525e-07,1.33937830541075e-09,174.343037563144,0.135294127775653,8.91645384150243
-25,-5,3.66519142918809,0,0,0,5,-0.0116357738683668,0.00947493547210598,0.0507311773926014,-0.0139769389718033,0.00120346074119034,-1.91185527906159e-06,-9.92216355243339e-08,3.79140653424605e-10,-0.00411326877275107,0.00010345891330118,-7.55321682513174e-07,1.68205253387699e-09,118.037055821973,0.18348003982958,43.0565184109969
-25,0,2.61799387799149,0,0,0,5,-0.0175455632839672,-0.0103497836976985,0.0514823503889064,0.0140237933919588,-0.00110455815074349,2.01043956541603e-06,7.5046685373474e-08,-2.58726208802805e-10,0.00360272953015757,-7.86280057138422e-05,4.94208805738822e-07,-9.43657938615447e-10,117.462054272318,0.0728189776351872,45.4960017142421
-25,0,3.14159265358979,0,0,0,5,-0.00287752417483844,-0.00854866751663941,0.04345339303541,0.0141073051037014,0.000176097963708432,-1.57855479097707e-05,1.27992883084714e-07,-2.6133283477745e-10,-0.00319640380273651,6.19553293123013e-05,-3.44709000759493e-07,5.81551397578507e-10,229.088946025446,5.53907121524064,5.92742187642726
-25,0,3.66519142918809,0,0,0,5,-0.0160441307252661,0.0105168085521754,0.051327706203975,-0.0140123491025709,0.00120166018561523,-2.35971049762022e-06,-8.92507229581685e-08,3.25174084195111e-10,-0.00378639425391897,8.70030521279196e-05,-5.76946381193042e-07,1.16350218677673e-09,113.721183517219,0.0855846460362066,43.6418511412292
-25,5,2.61799387799149,0,0,0,5,-0.0113435049734711,-0.00946609247555585,0.0506893791261565,0.0139710986556242,-0.00121065964384735,2.03893352128385e-06,9.91364685197241e-08,-3.82779917077748e-10,0.00416477154193297,-0.000106120850397402,7.85456205487991e-07,-1.77398994424229e-09,118.220132289645,0.176310614414944,42.7268858222033
-25,5,3.14159265358979,0,0,0,5,-0.0439412246791875,-0.000581617395102541,0.0658186966877214,0.0144444823459373,-0.000177138426409421,-2.15357600672364e-05,2.55669703546037e-07,-6.97283484143655e-10,0.00432142065960279,-0.000113534594417539,8.54206324089898e-07,-1.94779746129257e-09,139.233146570035,0.147540228599118,48.9159832999497
-25,5,3.66519142918809,0,0,0,5,-0.00913734345931871,0.00718809254232156,0.0505798661291568,-0.0138203824975199,0.000833087354820787,8.58801108532852e-06,-1.94201539581041e-07,6.24948722935767e-10,0.002667383950213,-6.0275014449942e-05,4.12188541954616e-07,-8.77532841100921e-10,154.335538269593,0.955324064237703,5.24418152842159
-25,10,2.61799387799149,0,0,0,5,0.0046525285600687,-0.0467516078733503,0.0520242760603935,0.0140180013234795,-0.00118602121530879,1.93210818630672e-06,9.28517276466159e-08,-3.43863229751062e-10,0.00392798411513394,-9.42364200427346e-05,6.54847174729654e-07,-1.38666267137231e-09,120.370644428754,0.168582316103404,45.8031499202419
-25,10,3.14159265358979,0,0,0,5,0.0281827358379445,0.00934023913756477,0.0441095533907756,-0.0154875381360378,-0.00033382416656157,3.56055620099978e-05,-3.77086584591557e-07,1.011175330886e-09,-0.00167275272888875,6.9827333645898e-05,-6.56549700951446e-07,1.73185861054723e-09,153.037301698309,0.0402512536787972,32.3287207840039
-25,10,3.66519142918809,0,0,0,5,0.0028247898738698,-0.0657798878760403,0.050568499049096,-0.0141410730662361,0.000875696821401059,9.18400715687702e-06,-2.16491310236038e-07,7.21487682196192e-10,0.000407693747260227,4.80409886768374e-06,-9.77727085895155e-08,3.11508901318249e-10,143.448604491859,0.0121238787416277,10.7016966640404
-25,15,2.61799387799149,0,0,0,5,-0.0222780807398308,-0.00462864082969716,0.080871734151962,0.0325758985145406,-0.000544423871567519,-2.4125638555124e-06,5.18839382935542e-08,-1.1983385340989e-10,6.64306072424733e-17,-1.12459664798091e-18,5.62192335784725e-21,-8.62516484719374e-24,216.846783967281,1.99968087651839,0
-25,15,3.14159265358979,0,0,0,5,0.0365551398747108,0.0265960093820112,0.0434324409528628,0.0141005489842274,0.000115297992947378,-1.27152716387953e-05,9.85577268639504e-08,-1.89971735104581e-10,-0.00305191432113668,5.61540391501632e-05,-2.94709022525543e-07,4.67400152505161e-10,252.38076717008,1.67499234139137,7.00152809046285
-25,15,3.66519142918809,0,0,0,5,-0.0102692371533735,0.014502534208745,0.0504781420990552,-0.0136372795589481,0.0011896882199379,2.88216012944174e-06,-1.91706808657053e-07,7.33059534970925e-10,0.00190203918072731,-4.6775100648567e-05,3.50230369757384e-07,-8.19093340044379e-10,138.798477351103,0.899456647861306,3.60039698858007
-25,20,2.61799387799149,0,0,0,5,-0.0117315877531965,-0.00781990023168078,0.0514821747066829,0.0141028529372756,-0.000688807718241253,-4.98543790898117e-06,1.04327951384553e-07,-2.85470450139556e-10,0.00251135678683234,-6.04789600634966e-05,3.91790357182764e-07,-7.49911743491683e-10,150.532817130807,0.124713660667602,46.9776574882568
-25,20,3.14159265358979,0,0,0,5,-0.0071535561204179,0.00962970098067117,0.0433205710364755,-0.0140148265282684,0.000148324503705236,1.40831420309302e-05,-1.47054045940867e-07,3.43371214535167e-10,-0.00339030404058502,6.97152089523633e-05,-4.13369096677721e-07,7.45140247132681e-10,139.846143353346,0.000849169331163958,53.2013221579347
-25,20,3.66519142918809,0,0,0,5,-0.0088133060640132,0.015604887332362,0.0503825746958464,-0.0133859895307649,0.00150983776450478,-5.5957826341695e-06,-1.31125114852279e-07,6.05112153029373e-10,0.000999845744498262,-2.44801745050708e-05,1.82840551806464e-07,-4.26998557614529e-10,131.737609764513,0.850919048799704,2.51290013708587
-25,25,2.61799387799149,0,0,0,5,-0.00979568715421664,-0.00562585802133242,0.0505201756222609,0.0139993065172471,-0.00139992937254405,8.24478642768787e-06,3.552293973932e-08,-1.88497838143354e-10,0.00372232826244175,-8.45033320079301e-05,5.54239755721814e-07,-1.10646801062282e-09,126.426234635097,0.158737324931495,51.4294911510343
-25,25,3.14159265358979,0,0,0,5,-0.0794885664402329,-0.0421849609568383,0.0413953857631566,-0.0141364099967161,7.76187478341081e-05,3.20881559464976e-05,-4.19129433098757e-07,1.27987569993635e-09,0.000799356637036488,1.52202780892797e-05,-3.17903114188707e-07,1.13108673364218e-09,146.082427707764,0.0194502078552554,14.1524510467708
-25,30,0,0,0,0,5,0.00802256661508949,-0.00163615248042248,0.0404641347929857,0.0140375323987439,0.00489950840056443,-0.000147123626099822,1.32289866480534e-06,-3.68034848596273e-09,-0.00464037137189281,0.000145551815370931,-1.38222044957927e-06,4.02313619037868e-09,36.0744945268614,23.3196138401856,127.42814572489
-25,30,2.61799387799149,0,0,0,5,-0.00748248124882167,-0.00623729905534987,0.0500345200476109,0.0139476376643291,-0.00163589671342406,1.44660281796997e-05,-1.16141197922731e-08,-8.59906540128566e-11,0.00413434282415999,-0.00010476932049929,7.72523045517508e-07,-1.74021484694522e-09,130.515254121079,0.211546566614037,49.0536488082345
-25,30,3.14159265358979,0,0,0,5,0.00957730136409651,-0.00226039495074204,0.0153096024026036,0.00881728449646614,0.00762823800990576,-0.000361038760737086,5.02538343604818e-06,-2.14620439945458e-08,0.00755323733017944,-0.00035575641990992,4.9005697841855e-06,-2.07208615902083e-08,7.25562610337973,0.0871487044529358,71.1931091144395
-20,-30,3.14159265358979,0,0,0,5,-0.00982897661146964,-0.0182372277707117,0.0432685523412095,0.013871300637945,-0.000103758191312655,-3.35838574387718e-05,4.56797342367763e-07,-1.44955206324606e-09,-0.00372552290295501,0.000104141443448294,-8.77337257191363e-07,2.2959701051948e-09,144.77342548119,0.988817037314169,5.14087334376819
-20,-30,3.66519142918809,0,0,0,5,0.0244624669737554,-0.0715362597474183,0.0735471154745175,-0.0183140767660653,0.00144885461562054,-9.39261762009925e-06,-2.84604657514625e-08,1.83814520408959e-10,-0.00406979339401948,0.000101268750462771,-7.34334950096535e-07,1.62822893609075e-09,133.062100725001,0.154303870800111,47.395106970259
-20,-30,4.18879020478639,0,0,0,5,-0.00131096953085574,0.00929424541200419,0.0431951613584056,-0.0123898033929387,0.00239533871827179,-3.76845282393216e-05,2.16764547113005e-07,-4.37874052686313e-10,-0.00328392976270618,7.09775901038753e-05,-4.73882082989e-07,9.96665112692414e-10,119.741429796561,0.516851820210087,48.2681483050252
-20,-25,2.61799387799149,0,0,0,5,0.0107138996076941,0.0108964889410395,0.0479600413673835,-0.013822902398174,-0.00678583511721176,0.000289462968637824,-3.64116073989726e-06,1.40711617472807e-08,-0.00492030942539859,0.000178853460503568,-1.99837755722912e-06,7.07829906754451e-09,6.17187436183518,0.0898370384827866,74.6065618251413
-20,-25,3.14159265358979,0,0,0,5,-0.00591767844790425,-0.0104486460937103,0.0433268823715651,0.0139988920814067,-2.53561607862354e-05,-1.55195658045002e-05,1.48536237685671e-07,-3.32951249224501e-10,0.0033045554176515,-6.62932549398656e-05,3.84441806170901e-07,-6.78545881868768e-10,141.387935527429,0.0713083300644396,52.7132960657895
-20,-25,3.66519142918809,0,0,0,5,0.000128993944720435,0.0398868391761944,0.0463643106307416,0.0139701023131597,0.000902230612321556,-3.82217333333074e-05,3.20429711503285e-07,-7.41808138601709e-10,-0.0034750359212329,7.89798928797117e-05,-5.27397792319351e-07,1.07982602934561e-09,215.353852832321,0.121031511943722,3.93704843539312
-20,-20,2.0943951023932,0,0,0,5,0.0119188726896056,0.0110150627917101,0.0503673424734954,-0.01399179617937,-0.00665375769006882,0.000272742259549111,-3.28087122153772e-06,1.20963224502956e-08,-0.000614298271413288,3.20093291301111e-06,2.65901486464089e-07,-1.94593410154752e-09,12.4171665434923,0.0693276999116,84.9350610563028
-20,-20,2.61799387799149,0,0,0,5,-0.0102005880683507,-0.015460657618295,0.050515193112147,0.0135552456466161,-0.000941702817725965,-1.00075492222328e-05,2.53122471868874e-07,-8.95477566769766e-10,-0.00148170075863258,3.63475031618139e-05,-2.71770540180977e-07,6.35078211153555e-10,136.360055239989,0.865149178241447,3.01180947097838
-20,-20,3.14159265358979,0,0,0,5,-0.00530170072385516,-0.00913604555806202,0.0431866200136874,0.0140041643449293,3.77535030944734e-05,-1.67733135134524e-05,1.55366909866665e-07,-3.44178765142888e-10,0.00331371485308821,-6.66521210050173e-05,3.870232579394e-07,-6.83582789002128e-10,145.018628967284,0.0731629981941698,54.0530406284522
-20,-20,3.66519142918809,0,0,0,5,0.296444993491189,0.130618937500252,0.0638201515543897,0.0150282317441687,0.000830245024331241,-4.17552985584704e-05,3.77526671908333e-07,-9.29136221140949e-10,0.00346216799804459,-7.30785550109952e-05,4.5545945522003e-07,-8.78587525173031e-10,144.292734633969,0.06453134219472,58.6373040721567
-20,-15,2.0943951023932,0,0,0,5,0.450903731624098,0.0760972369138582,0.0819040204027432,-0.0152837958235046,-0.00525836646252604,0.000178338912428157,-2.09600100807531e-06,8.06926457307815e-09,-0.0025347802164778,0.000105850170558712,-1.15480734939638e-06,3.67899487900278e-09,21.6985773683577,0.252038235016723,74.4177695903691
-20,-15,2.61799387799149,0,0,0,5,-0.0357330012259354,-0.0347064458903148,0.0521297051424372,0.0140872412736955,-0.00211616355692075,3.86493810791474e-05,-3.97736532423174e-07,1.88227537845719e-09,0.00756142516946831,-0.000344883834703066,4.49413075315863e-06,-1.7722010377718e-08,107.647904928508,0.0308050533989103,24.7331573207002
-20,-15,3.14159265358979,0,0,0,5,0.016431304391233,-0.00466087432129392,0.0727227052523363,0.0173610796196926,0.00046910011798318,-4.04736618763401e-05,4.31863519879751e-07,-1.20167852670538e-09,0.00243242618077522,-8.56995798523778e-05,7.58182207645443e-07,-1.93728777576363e-09,146.805715109747,0.13976305666498,32.3498853335549
-20,-15,3.66519142918809,0,0,0,5,-0.0106789884816436,0.00686855143026932,0.0505410021933268,-0.0139851932596045,0.00086452394103235,5.58093777769776e-06,-1.44107131678574e-07,4.5786492262793e-10,-0.00413805753766917,0.000104671403027993,-7.66263952016526e-07,1.70892497856614e-09,129.154938083978,0.184506674183581,46.0978686135198
-20,-10,2.0943951023932,0,0,0,5,0.015185071333562,0.00933541783807357,0.0503275337000204,-0.0139349020732876,-0.00699267544487363,0.000302617336496579,-3.83640900270055e-06,1.48933103442041e-08,-0.00475740510490761,0.000157733125577063,-1.6057456744541e-06,5.22516686852827e-09,6.5710784186526,0.0723273528008331,78.08262818423
-20,-10,2.61799387799149,0,0,0,5,-0.0121775938058235,-0.0239061400063392,0.0513040504945246,0.0032232430643205,-0.00658729515620135,0.000270256017906292,-3.32196565943331e-06,1.26491998544693e-08,-0.00750384763294667,0.000339837099527462,-4.38588993797538e-06,1.71525035363542e-08,12.5806027816464,0.153419847995051,65.9813942018468
-20,-10,3.14159265358979,0,0,0,5,-0.0274500912287046,-0.0327691498335589,0.044450636859096,0.0141243143724606,0.000575890342722639,-3.88433478402808e-05,3.78657393246722e-07,-9.64371726855275e-10,0.00151138546971822,-6.59633018128652e-05,6.28451616886453e-07,-1.66846921745424e-09,158.622544808341,0.0390672839358801,32.2847456104625
-20,-10,3.66519142918809,0,0,0,5,0.0177379603979375,0.0477330129929108,0.0610424701174401,-0.0149426964037271,0.000848176272466863,6.29183819746523e-06,-1.52876676416425e-07,4.87209875013757e-10,-0.00413263009933763,0.000103835562772931,-7.57318758451846e-07,1.68516202219083e-09,126.06479136979,0.152647762338662,44.3161858710246
-20,-5,2.0943951023932,0,0,0,5,0.0120679495345613,-0.00075580383667706,0.0471722104385091,-0.0135706695933726,-0.00709817693579216,0.000309161782590942,-3.93234867281012e-06,1.52938249719195e-08,-0.00632679858281555,0.00025063874149538,-2.98562965774537e-06,1.10876362702324e-08,8.67455541182547,0.0779934925007248,72.9373927365709
-20,-5,2.61799387799149,0,0,0,5,-0.0184129105808459,-0.0251857445931751,0.0515443464583965,0.00795343491430044,-0.00286723537074131,4.77488003247091e-05,-4.34093387701635e-08,-1.26994872513483e-09,-0.00681434695443037,0.000280868971392341,-3.31261839133469e-06,1.19419559474697e-08,21.4112082260109,0.241451901883799,76.8442852389608
-20,-5,3.14159265358979,0,0,0,5,-0.00474334949702637,-0.0067947124648704,0.0426479667334143,0.0139935270771833,0.000207396883027196,-2.73846759426076e-05,2.71508593787627e-07,-6.69241679979542e-10,0.00380032980349665,-8.78957705221283e-05,5.85995162973072e-07,-1.18777394733392e-09,139.753012821617,0.108953170607618,51.6787765799301
-20,-5,3.66519142918809,0,0,0,5,-0.0108159059000563,-0.0453221448442775,0.0621291957996357,-0.0144405917693067,0.000878099718152221,5.66436248175345e-06,-1.48316668849899e-07,4.69132094485314e-10,-0.00434905861230516,0.00011389827142747,-8.50336865703193e-07,1.91902611595945e-09,123.437191045323,0.0415748124167383,41.7447756050838
-20,0,2.0943951023932,0,0,0,5,-0.020988523660602,-0.00814502767027725,0.0499586600610664,0.0131701880438642,-0.00140506850653052,9.0341694550247e-06,3.24981636304193e-08,-1.82346749391169e-10,-0.00016386873507659,3.14955580597962e-06,-1.84651368826018e-08,3.38475404106479e-11,153.384202272695,0.375502245847298,1.26618125383273
-20,0,2.61799387799149,0,0,0,5,-0.291869822911938,0.0134623650123204,0.0754911230723638,0.0314047659366099,-0.00035104577315384,-8.77403869575397e-06,1.07163654971896e-07,-2.52879549298499e-10,7.93833400050422e-17,-1.25983843861291e-18,6.09459264128235e-21,-9.14213481181842e-24,199.860622016155,0.0281660940005099,0
-20,0,3.14159265358979,0,0,0,5,-0.0288015851868124,-0.0276601910672021,0.0443520562912907,0.0141146423091214,9.81269768734248e-05,-2.66472863159744e-05,2.80772590348768e-07,-7.26489111987076e-10,0.0045498422230995,-0.000124561390258851,9.70847984254111e-07,-2.28554561083363e-09,142.30114646275,0.0358829764671974,46.8477565731548
-20,0,3.66519142918809,0,0,0,5,0.0501255241070879,0.0508428447603961,0.0818312647179127,-0.0292053749233283,0.00115166484449196,5.56785124742159e-07,-1.29694234929207e-07,4.7714955477791e-10,-0.00413650573798688,0.000104448333448086,-7.78596837173511e-07,1.78429075092407e-09,121.274053268988,0.125670265932287,32.2712155451407
-20,0,4.18879020478639,0,0,0,5,0.0445212189889155,0.0228799872926001,0.0507531773548715,-0.0140848289062664,0.000895663220294034,-2.29700291975935e-06,-4.18456943912189e-08,1.37552018266764e-10,-1.76387195651007e-12,3.04675656766127e-14,-1.60388983068798e-16,2.63852935368895e-19,181.568145072423,3.48534886184527e-34,0
-20,5,2.61799387799149,0,0,0,5,-0.0114796748837094,-0.00909159500062628,0.0506656479912215,0.0139780650239451,-0.000771748981452507,-8.52213785468672e-06,1.732110386404e-07,-5.43118694655035e-10,0.00417568739473842,-0.000106746268481406,7.91432254832247e-07,-1.78924430630269e-09,123.941101665813,0.179798194305263,43.0535916782771
-20,5,3.14159265358979,0,0,0,5,0.0176506528981122,-0.020799442321735,0.0953434889968676,0.0241724907274154,-0.000195859232221031,-2.06132455988494e-05,2.42572029388212e-07,-6.43175700292292e-10,0.0044372843044194,-0.000118071175967163,8.94863236239068e-07,-2.04895527627127e-09,140.713887331271,0.0970454844514734,43.312016819135
-20,5,3.66519142918809,0,0,0,5,-0.0243310560774717,0.0229272955542097,0.0520060201405101,-0.0140466766202121,0.000510107552796398,1.63341834086213e-05,-2.46787075752888e-07,7.33674149538445e-10,0.00365221562430731,-8.6634933332922e-05,6.09084870800295e-07,-1.31876345490423e-09,158.408914502174,0.784575163368118,4.34128682935373
-20,5,4.18879020478639,0,0,0,5,0.0122672050869497,0.000324453635445643,0.0475638285896798,0.0136569241871523,0.0074575029485671,-0.000341282421302832,4.56346369817758e-06,-1.86633528276477e-08,0.00640457909229969,-0.000257250266478054,3.11190639427755e-06,-1.17947625888281e-08,8.53095814202073,0.0829612790438878,72.3310158461843
-20,10,2.61799387799149,0,0,0,5,-0.0112940690487378,-0.00773511113238357,0.0506830171400585,0.0139947168842178,-0.000773915239588394,-7.65976219866808e-06,1.57297807865527e-07,-4.76178593158257e-10,0.00393947710403509,-9.48023157299845e-05,6.59843703067636e-07,-1.39854835587547e-09,126.119077844614,0.168214437513994,46.18920441558
-20,10,3.14159265358979,0,0,0,5,-0.000676863785198378,-0.00327674521320809,0.041616247148621,0.0140752848498371,0.000406604987785152,-1.54500784167785e-05,1.01576366677974e-07,-1.80846298553586e-10,-0.00261662153807683,4.40715440553061e-05,-2.19010633515619e-07,3.34409999158432e-10,282.37503424342,0.184359780110795,2.41529388391323
-20,10,3.66519142918809,0,0,0,5,-0.0315421089613395,0.0359056780624805,0.052220738651052,-0.0141254717510359,0.000778415642636534,1.1310727758596e-05,-2.26457047290482e-07,7.38765159154964e-10,-0.00376454631973021,0.000112767555526419,-9.30130710921454e-07,2.28575419551388e-09,119.589089229841,0.0449869649613332,32.3367688371019
-20,10,4.18879020478639,0,0,0,5,0.0348892249180288,-0.0302579361509085,0.0520598503280265,0.0140986429749886,0.00752553823967477,-0.000342124035008301,4.44975930365942e-06,-1.75211082423792e-08,0.00519475197984923,-0.000171420169841017,1.78282502942756e-06,-6.07486955165885e-09,5.19713310354233,0.0135584269087531,77.6983030593642
-20,15,2.61799387799149,0,0,0,5,0.0085382003380623,0.0131469985145394,0.0586397346773957,0.0142962736798266,-0.000873921466738587,-5.15146795444367e-06,1.37907475675557e-07,-4.30936083718132e-10,0.00396931442151282,-9.60214159807486e-05,6.70185624772244e-07,-1.4227492361863e-09,128.025176362704,0.159187449201997,47.0692055190266
-20,15,3.14159265358979,0,0,0,5,0.183436503403126,0.296171041695768,0.0778257129206041,0.0168415140029919,-0.000150241706158208,-1.98108239816214e-05,2.20825379344038e-07,-5.6435200808505e-10,0.00413510773198894,-0.000102960304318108,7.30530520789945e-07,-1.56642837347919e-09,147.302356240063,0.0599814527131709,51.4436970505124
-20,15,3.66519142918809,0,0,0,5,-0.0300036901901066,0.0334390306836276,0.0520344213123538,-0.0140023629126201,0.000750006733410298,1.37750687706799e-05,-2.65261401515986e-07,8.73539600615891e-10,0.00342963869960115,-8.72004202840993e-05,6.65841266017294e-07,-1.57636178533199e-09,144.218675281245,0.642259170193191,2.86037532428475
-20,15,4.18879020478639,0,0,0,5,0.0422708119867252,-0.0415034986549951,0.0523778557504562,0.0141337658099991,0.00760542049975919,-0.000347454042218532,4.51565574680254e-06,-1.77163015180657e-08,0.0025076366369244,-7.47671053239439e-05,6.24306132201318e-07,-1.68641738572441e-09,8.44954640564243,0.00590604644404208,80.6846040994612
-20,20,2.61799387799149,0,0,0,5,0.0048317587569997,0.0255500929520451,0.0505774671850161,-0.0141311818092701,-0.000670257863060734,2.88845114493914e-05,-2.25580093873168e-07,4.72142802454768e-10,-0.00264580402148682,6.16283518490829e-05,-3.89653199964762e-07,7.29985441090656e-10,173.840756119773,0.000844649541385071,55.5713452779663
-20,20,3.14159265358979,0,0,0,5,-0.0284245870166586,-0.0187399059540851,0.0442997607682343,0.0141173536062279,-0.000201730366843225,-1.8077927141019e-05,2.03376679893285e-07,-5.13526410562723e-10,0.0041538055116639,-0.000103776573334008,7.37878963524939e-07,-1.58436001035535e-09,150.364731631795,0.034524108975162,54.0820504246542
-20,20,3.66519142918809,0,0,0,5,-0.029837212766715,0.0348147216344721,0.0520430227581175,-0.0139561494854446,0.000983571652360531,8.80165475528991e-06,-2.42091356046608e-07,8.60551873360057e-10,0.00266295080439561,-6.64536375799565e-05,5.02016720410623e-07,-1.18082385768229e-09,136.856917084667,0.583418982960433,2.07713873727302
-20,20,4.18879020478639,0,0,0,5,0.0162679619729076,0.0312347122350047,0.0488827855086011,-0.00441917991019857,0.00299141211217712,-5.91239111976866e-05,4.31456076246633e-07,-1.05752343074413e-09,-0.00421641762477362,0.00011173629804669,-8.72830433759113e-07,2.0941735687048e-09,104.119925401912,0.837475221000193,12.9198994870356
-20,25,0,0,0,0,5,0.0263714626822242,0.000519166505526414,0.0439373904217968,0.0141178177979225,0.0041415577336314,-0.000108955163179488,9.62179788401744e-07,-2.727796596006e-09,-0.00290130652345018,0.00011081704871647,-1.15063749991387e-06,3.50650471048716e-09,63.1601776918943,0.192351350789277,119.016932537082
-20,25,2.61799387799149,0,0,0,5,-0.00865003338710579,-0.00385366259832054,0.0510435336429111,0.0140758388380194,-0.000400357926188816,-5.60555824650553e-06,7.21216006798284e-08,-1.60831163263546e-10,-0.00288450457714345,5.10692186727554e-05,-2.62452436132153e-07,4.11172495528313e-10,219.994957536822,1.61235386652662,6.97671408538171
-20,25,3.14159265358979,0,0,0,5,-0.0231626181111864,0.0300810937218863,0.0444455708748386,-0.0141105485574186,5.70463719014709e-05,1.58107159651147e-05,-1.56889887406759e-07,3.60676405745418e-10,-0.0035160238678128,7.43431844164111e-05,-4.47823369093272e-07,8.15004794337421e-10,139.383527794333,0.000834844236651789,50.3178651387762
-20,25,3.66519142918809,0,0,0,5,-0.0344006332597218,0.0389357962467933,0.0522300464573773,-0.0141030008026422,0.0014276951353043,-2.77583863673787e-06,-1.60150406117294e-07,6.89894664871389e-10,-0.00214188669099364,7.10889972090899e-05,-6.20777871687357e-07,1.59228547357331e-09,116.148236341837,0.0433492760917166,12.9136104104231
-20,30,2.61799387799149,0,0,0,5,0.0139071540092068,-0.255726683178878,0.0859021619594711,0.0261451571635933,-0.00179343101460858,1.88246902440525e-05,-4.96726040032389e-08,2.50126598218133e-11,0.00447604014181961,-0.000119749706954049,9.11288102425031e-07,-2.09331916536601e-09,134.370593611503,0.00204497780096628,40.6280262709033
-20,30,3.14159265358979,0,0,0,5,0.0284129662955159,-0.0167614425719904,0.040533698243951,0.00771933031950519,0.0083000091674806,-0.000416205346834031,5.97564900115743e-06,-2.59844451840693e-08,0.00797343721497658,-0.000387938915662937,5.52802451987151e-06,-2.40213193741596e-08,6.73938418100454,0.0192618251310447,65.2740977276277
-15,-30,0,0,0,0,5,0.0221197569250915,0.0250635842606002,0.0442428916197661,0.0141203672210828,0.00292362615182727,-5.41929835811402e-05,3.39346541665804e-07,-7.44240325085037e-10,-0.000366616615411423,3.72619470362678e-05,-5.02427654406309e-07,1.70381199419291e-09,105.350237896918,0.132896029270251,101.206469728978
-15,-30,0.523598775598299,0,0,0,5,0.00746434296588916,0.00333141162229467,0.048702144145055,-0.0140257092278399,-0.00475442564159627,0.000138995297579413,-1.2338596463516e-06,3.41127862493875e-09,0.00229619181110057,-9.51172527398336e-05,1.03008086387786e-06,-3.22417105560194e-09,48.859134366851,0.667496745866602,116.240889193648
-15,-30,1.0471975511966,0,0,0,5,0.0245815413794119,0.0212793588088758,0.0502722536025562,-0.0141171292406244,-0.00566972608447615,0.000194590397884301,-1.92695083282127e-06,5.79939974989809e-09,0.0012975748260199,-7.6423299620776e-05,9.71411795745078e-07,-3.38265905850119e-09,41.3626961974508,0.0863134049551128,104.896015735803
-15,-30,1.5707963267949,0,0,0,5,0.0326515642959322,0.0300642698814926,0.0443494886247269,-0.0141104825637628,-0.00492162442550438,0.000151902414266143,-1.51587669062755e-06,4.7727516934248e-09,-0.00512317589750503,0.00015899643221765,-1.41628837612264e-06,3.84992039149593e-09,60.2512856218591,1.96693169188832,55.4167189221763
-15,-30,2.0943951023932,0,0,0,5,0.00609406102007526,0.018891616624348,0.0514066785309168,-0.0140809932939092,1.56465542774942e-16,-4.8078758185055e-18,4.33917690659979e-20,-1.19953173295092e-22,-0.00175530102180576,2.21618089636915e-05,-9.85572759828011e-08,1.99918732819033e-10,0,0.0597915550761281,128.693671942436
-15,-30,2.61799387799149,0,0,0,5,0.00521049709896815,0.018393160901546,0.0487830090352062,-0.0139367101497543,-0.00638763448052888,0.000254814294825284,-3.12166860822103e-06,1.19405263783191e-08,-0.0038252196285042,9.8046442503974e-05,-7.88257948112105e-07,2.05356486969171e-09,2.96513230058393,0.0973159078124772,80.9087894572905
-15,-30,3.14159265358979,0,0,0,5,-0.03190294880023,-0.0369965173775029,0.0444426497776074,0.0141015700685198,-0.000393536257823041,-2.07570045906005e-05,2.86816890467438e-07,-7.82137147562323e-10,0.00724636671232755,-0.000316296452716355,3.93675476256396e-06,-1.4813285650247e-08,116.546488349175,0.0313304525582565,28.0277218956753
-15,-30,3.66519142918809,0,0,0,5,-0.0100305514408507,0.00404378636861225,0.0503811266636189,-0.0139938561922173,0.000955822703014582,2.26214656632669e-06,-1.07896618820344e-07,3.47021260953182e-10,-0.00416718551117746,0.000105942922410946,-7.77429068121127e-07,1.73599344550538e-09,138.970714461831,0.179406222245877,49.6358076863384
-15,-30,4.18879020478639,0,0,0,5,-0.0178489996825366,0.16677585445046,0.0921647895853326,-0.0220659241446994,0.00105864083731171,-5.76289147551466e-06,-1.6838123200783e-08,8.19167283859858e-11,1.00326682376841e-17,-1.98135743661142e-19,1.11525738390497e-21,-1.89142692990393e-24,199.444641429142,1.99071651899962,0
-15,-30,4.71238898038469,0,0,0,5,0.00326798063817613,0.0289788715491746,0.0125642225912772,-0.00358331975241993,0.00215316844627492,-2.88423523868795e-05,1.2302401841355e-07,-1.70751731829348e-10,-1.7744998626354e-05,2.93654173557405e-07,-1.47939733215008e-09,2.32762774665912e-12,164.025880664941,0.950465839017335,4.89503125138389
-15,-30,5.23598775598299,0,0,0,5,0.0286035326258318,0.0411679072595064,0.0504433483649427,0.0137608312195335,0.00265635843043939,-4.58583043289349e-05,2.84509737005073e-07,-6.21872919665277e-10,-0.000850704244112874,2.05266153445614e-05,-1.51076336368751e-07,3.47655306642024e-10,139.067430503073,29.9502493516951,1.67066327238728
-15,-30,5.75958653158129,0,0,0,5,0.0177219106508506,0.0282136032255949,0.0516419195887368,0.0140801920590923,0.00273304437938082,-4.81296249387506e-05,2.98479278902339e-07,-6.52926821502913e-10,0.00318005864823438,-0.000104907734799769,9.24255651345821e-07,-2.40261779036329e-09,132.91450063931,1.07446698404466,45.67314228421
-15,-25,0,0,0,0,5,0.0231578936032264,0.024167249083682,0.0442418439310313,0.0141217214142376,0.00303567247024789,-5.87119828457512e-05,3.87532398204014e-07,-8.90928596493194e-10,-0.000899590954108617,5.0730587181692e-05,-6.17587531204825e-07,2.03060337275204e-09,97.4416859200643,0.125921041679119,104.346627411867
-15,-25,0.523598775598299,0,0,0,5,0.00821152899770894,0.00255271628953935,0.0490641498695523,-0.0140288056510122,-0.00468904906134086,0.000135718723898859,-1.20474567520402e-06,3.34577016399743e-09,0.00204841025462246,-8.81748071618404e-05,9.81262290321497e-07,-3.13547597513349e-09,49.2613705218312,0.527955819119303,114.071507904772
-15,-25,1.0471975511966,0,0,0,5,0.0303454388239732,0.0359272687091554,0.0506129545758724,-0.0141238618184994,-0.00431523523738603,0.000122479143324528,-1.17613370963592e-06,3.59665887027804e-09,-0.00533539938077409,0.000172093434837383,-1.58619033272065e-06,4.44863757157233e-09,76.6627580064776,1.97637838193494,54.3572918668418
-15,-25,1.5707963267949,0,0,0,5,0.0214835623693919,0.0290703828598531,0.044280160845517,-0.0141255101668046,-0.00550934719486089,0.000184152994190499,-1.76935955637468e-06,5.15844692277149e-09,0.00197843445814655,-7.12444641474182e-05,7.87992548896401e-07,-2.58454689211733e-09,13.8439443010993,1.84287866055686,114.687540401986
-15,-25,2.0943951023932,0,0,0,5,-0.222306134518671,0.0489711361084559,0.0682016187559507,-0.0266295772303065,-0.00359770730760107,7.47352198407277e-05,-4.49166853619672e-07,3.47668308165205e-10,-0.00128298408663849,7.46270639405212e-05,-1.05562083697419e-06,4.32098451437078e-09,55.8730137807843,0.0252101046436833,46.9929453737876
-15,-25,2.61799387799149,0,0,0,5,0.00929634129717094,0.0124012300695924,0.0480589475002229,-0.0138417051841067,-0.0067369680012816,0.000286334067796704,-3.59455210639993e-06,1.38743188153477e-08,-0.00474880175011968,0.00016595389280075,-1.74951630785298e-06,5.79795005730636e-09,6.54747917544742,0.107419653193078,68.8058132090341
-15,-25,3.14159265358979,0,0,0,5,-0.00418623441065336,-0.00987099561430327,0.043177040686698,0.0139808037159714,0.000140090827197788,-1.85450477875205e-05,1.64432483173397e-07,-3.58564589443396e-10,0.00328642457973256,-6.56418345787496e-05,3.79778427728118e-07,-6.69409927002271e-10,144.201829339132,0.0740381153940749,52.6066206131108
-15,-25,3.66519142918809,0,0,0,5,-0.0102323786531393,0.00480221307002182,0.0504228227138031,-0.0139921917730838,0.0007755053131418,6.63937515078663e-06,-1.40520953471533e-07,4.23743987873501e-10,-0.0041608180360745,0.000105691218180005,-7.75303808530766e-07,1.73096382590479e-09,137.95106785018,0.180836436830623,48.6265063732964
-15,-25,4.18879020478639,0,0,0,5,-0.00589045228236706,0.00805356180999794,0.0473390597552843,-0.0136283581356722,0.00207979517224067,-2.79238660336512e-05,1.32451073853327e-07,-2.29452302645627e-10,-0.00387113421559371,9.35011349705962e-05,-6.77141456658848e-07,1.51986505551531e-09,120.885519855075,0.576490026422844,43.2773727037901
-15,-25,4.71238898038469,0,0,0,5,-0.000740961741822588,0.00936350255817331,0.0282431880106797,-0.00240589787299542,0.00213527645921824,-2.83266863455106e-05,1.18739092493463e-07,-1.60154486209343e-10,-9.58791328834405e-05,1.57728704595594e-06,-7.91499726545212e-09,1.24183126626682e-11,159.753809286864,0.926602021312311,4.38240814887306
-15,-25,5.23598775598299,0,0,0,5,0.041969322052644,0.0439929736120774,0.0508336676201893,0.0140551942436224,0.00266039829788378,-4.6065543987224e-05,2.87608468282669e-07,-6.32023154903992e-10,-0.00200544439264787,4.87439052706044e-05,-3.60096060651651e-07,8.30105904567701e-10,136.774299745626,27.0452356328647,1.43172689903107
-15,-25,5.75958653158129,0,0,0,5,0.00498232453506198,0.00870629498491127,0.0487870012069314,0.0139033717325814,0.00278892035383477,-5.00526844388943e-05,3.13087261900334e-07,-6.75087005976389e-10,0.00273234490773853,-8.77463189603031e-05,7.62348145992273e-07,-1.96890573918444e-09,124.286123046289,2.32286984340127,49.8413751337728
-15,-20,0,0,0,0,5,0.0393938888868597,0.0393694119227632,0.0446422673096034,0.0141383929107172,0.00341421837701399,-7.52194542153345e-05,5.83682141939981e-07,-1.54497316553807e-09,-0.00118388125767443,5.80285658711114e-05,-6.91993355224219e-07,2.28773825676229e-09,92.4121180508889,0.0364581523266973,104.55876233133
-15,-20,0.523598775598299,0,0,0,5,0.0279145926733015,0.00755972096678192,0.0518418536376362,-0.0141192007015956,-0.00467185625056752,0.000135916086787233,-1.25133753662671e-06,3.62200267130721e-09,0.00179943244586229,-8.22707289729901e-05,9.53814525402403e-07,-3.14282863175839e-09,50.5684643751273,0.144715028982078,110.53355495288
-15,-20,1.0471975511966,0,0,0,5,0.0157411483192504,-0.0265174519471678,0.0509136405001518,-0.0140780209989073,-0.00467381469146574,0.000135452699075609,-1.22757380409289e-06,3.51294432967939e-09,-0.00293037183754967,5.48775719336006e-05,-2.25169431646648e-07,-8.17743458178844e-12,61.9391431399484,0.401749790575966,76.4059185810906
-15,-20,1.5707963267949,0,0,0,5,0.0447213628947676,0.0447213585335113,0.0447586423300255,-0.0142126172462126,0.00176928123364534,-1.22994796346126e-05,-9.01122970998228e-08,5.36581681580909e-10,-0.00136088515145819,1.82038311135579e-05,-1.08598988897537e-07,2.74272157507131e-10,0,0,163.969847499469
-15,-20,2.0943951023932,0,0,0,5,0.0407658508119209,0.0420862241615652,0.0523760637790378,-0.0141361476992885,-0.00766772028661247,0.000353324132643838,-4.63335881193744e-06,1.83458293254438e-08,-0.000556630765695684,-1.92222381975649e-05,7.48365441843036e-07,-4.50460305675769e-09,9.30129432043026,0.022561798930384,79.4107441525233
-15,-20,2.61799387799149,0,0,0,5,0.0104819163555252,0.0012643828746377,0.0359417982950685,-0.010299766388147,-0.0070132768463866,0.000303337931491913,-3.84392923945406e-06,1.49177853030749e-08,-0.00666026951425623,0.000278206929671958,-3.45690432501291e-06,1.32559190253579e-08,8.07116416885983,0.0822328412720992,62.0250329230819
-15,-20,3.14159265358979,0,0,0,5,-0.00377277166014167,-0.00878264499148784,0.0430402304486934,0.0139883326613821,0.000200317599880075,-1.97340448118604e-05,1.70885151036516e-07,-3.69140984630864e-10,0.00329703028612078,-6.60553120009179e-05,3.82750044078415e-07,-6.75207441024787e-10,147.608619619133,0.075636332193892,53.8988535642924
-15,-20,3.66519142918809,0,0,0,5,-0.00799071549428909,0.00878620771269567,0.0513794810140578,-0.0141082543578224,0.000189889298274466,9.50462312975661e-06,-9.3795073048519e-08,1.99408883205956e-10,0.00306720495225357,-5.70420186582922e-05,3.04482026842699e-07,-4.92798989594597e-10,221.612497500385,1.63053532660629,6.20007667347816
-15,-20,4.18879020478639,0,0,0,5,-0.00728997596352698,0.00796567588325914,0.0478226787643488,-0.0136706831073341,0.00197221791020544,-2.47120792679645e-05,1.04590670280575e-07,-1.56622498074792e-10,-0.00387794953121144,9.34048005800051e-05,-6.72288699807026e-07,1.49702764989172e-09,118.483712532482,0.40210983796026,41.6787939620868
-15,-20,4.71238898038469,0,0,0,5,-0.00162145246381229,0.00931672877939604,0.0333442611276844,-0.00114935947843213,0.00211822552085119,-2.78194539456475e-05,1.14675443659758e-07,-1.51498902725236e-10,-0.000137737941032698,2.26611010050053e-06,-1.13722607190526e-08,1.78433308712248e-11,155.431095579327,0.895820079225361,3.78942733842224
-15,-20,5.23598775598299,0,0,0,5,0.0148040526697244,0.0299478604606982,0.0490450342564763,0.0135590565706834,0.00269365002569257,-4.73418084277522e-05,3.007438041992e-07,-6.65516151121083e-10,-0.00133867161663765,3.20275094952766e-05,-2.34069965002764e-07,5.35320106186567e-10,139.653896252891,16.0164361857644,4.40225059640463
-15,-20,5.75958653158129,0,0,0,5,0.00553502493587921,0.00848632972923724,0.0489054274457112,0.0139154819302342,0.00286820661823477,-5.30501468330756e-05,3.43253531541436e-07,-7.6213681865455e-10,0.0027945549801421,-9.07495557438752e-05,7.95578849552252e-07,-2.07169087406434e-09,120.416568478233,0.907664696018163,50.5036996980074
-15,-15,0,0,0,0,5,0.0244087130347577,0.022582804967243,0.0442130120771802,0.0141225588492065,0.00361481318416958,-8.56615755247272e-05,7.3867955986045e-07,-2.13648787860892e-09,-0.00241008518614275,8.91370815846147e-05,-9.63171966824512e-07,3.08105969606903e-09,79.4978042278658,0.255272546135387,110.170672039838
-15,-15,0.523598775598299,0,0,0,5,0.00940883147413274,0.000188987935128893,0.0495595350349274,-0.0140291893862386,-0.0044544007155415,0.000123841819869224,-1.098787724395e-06,3.11013873546572e-09,0.00175989528389624,-8.0524798272299e-05,9.55621468759769e-07,-3.23299128129994e-09,51.3534823849491,0.654543703712928,108.338478127479
-15,-15,1.0471975511966,0,0,0,5,0.0192395239577614,0.00186019228707224,0.0488594133631988,-0.0140210005863035,-0.0044478313556238,0.000121290698776904,-9.94063540521508e-07,2.5449087160016e-09,-0.00249265074564391,4.81206307569875e-05,-2.29730234397839e-07,1.92456019023353e-10,58.9346228375795,0.88553520607605,80.665584781433
-15,-15,1.5707963267949,0,0,0,5,0.04241171680221,0.0404173379808164,0.0446634224658098,-0.0141366123980287,-0.00767496075406566,0.00035381924560384,-4.64128187914443e-06,1.8381109167661e-08,0.00107908715865774,-7.10451947180525e-05,1.20532476587217e-06,-5.5592228841012e-09,19.4719382431111,0.880415217484286,87.9886802207006
-15,-15,2.0943951023932,0,0,0,5,0.0123237905315072,0.0139078727478932,0.0505289602393768,-0.0139806508980906,-0.00687501257888353,0.000294691833774178,-3.7165524514021e-06,1.43839424353594e-08,-0.00299177103952949,7.13950932238394e-05,-3.52572415904374e-07,-2.36689807127125e-10,7.33047182076114,0.118527943186804,75.7515834258905
-15,-15,2.61799387799149,0,0,0,5,0.000502129299739806,-0.0186097670487335,0.0493022451968828,0.0124834032241311,0.000389707493725069,-8.24765607059543e-05,1.40792854856402e-06,-6.11085084361682e-09,-0.00394220061717534,0.00020528514674711,-2.74424589747793e-06,1.07227834169673e-08,75.0141401301009,0.06132348383993,69.4687738651933
-15,-15,3.14159265358979,0,0,0,5,-0.0107889576835376,-0.0355839416635941,0.0444604169970058,0.0140050734651725,0.00178332607975997,-0.000156775204419653,2.61650547279017e-06,-1.18438723517103e-08,-0.0058733398400575,0.000207754531685199,-2.07693044276037e-06,6.18868058347463e-09,33.1593354321981,0.0302096085126446,89.9944129947086
-15,-15,3.66519142918809,0,0,0,5,-0.0107801343651737,0.00666928758743168,0.0505248543890291,-0.0139883064903452,0.000520953958290385,1.29540965466166e-05,-1.89427904327206e-07,5.43504716360472e-10,-0.004142771199206,0.000104960743579644,-7.69029420107206e-07,1.71592241709821e-09,134.668041638528,0.190322740760737,46.3417075327719
-15,-15,4.18879020478639,0,0,0,5,-0.0272943934333156,0.0269727041487862,0.0503444160926421,-0.0140214319706629,0.00197644905828245,-2.49287803090546e-05,1.08557279957282e-07,-1.76928564336904e-10,-0.00417823531994914,0.00010585102851133,-7.75177279466876e-07,1.72756671430054e-09,117.060812818309,0.0866659626643363,38.1807849136874
-15,-15,4.71238898038469,0,0,0,5,0.0949097091519739,-0.439617164320406,0.054197592548288,0.00125295628685852,0.00199997839514991,-2.5323580228259e-05,9.93934205529079e-08,-1.21394979731287e-10,-4.69742362165148e-05,3.45699015633392e-07,5.68906925035729e-10,-4.75019975661212e-12,155.492510957711,0.00176678555654153,3.52429121580413
-15,-15,5.23598775598299,0,0,0,5,0.00334122288448846,0.00996517150433363,0.0421810277212504,0.0129208550695086,0.00273663269028597,-4.90150154488932e-05,3.17749905992602e-07,-7.07115516215491e-10,-0.00140978413967112,3.33534621620228e-05,-2.4170524034051e-07,5.48987335648421e-10,141.908139292579,4.7339078208026,8.42684636406273
-15,-15,5.75958653158129,0,0,0,5,0.00611254835392039,0.0081779413405485,0.0489743934604823,0.0139230078471789,0.00296618226073481,-5.69028457033655e-05,3.84564356631574e-07,-8.92777897011736e-10,0.00298563074236975,-9.97612224316592e-05,9.01338011311917e-07,-2.42008609016927e-09,115.717825001356,0.901806488684688,50.4064594796224
-15,-10,0,0,0,0,5,0.0261095736318993,0.126725634328992,0.0498672654087065,0.0142114076588056,0.00336827906314833,-7.28074782029586e-05,5.43302688293783e-07,-1.38815723083934e-09,-0.000924005604805432,6.17811309509729e-05,-8.34583859714685e-07,3.0234338609759e-09,89.3104793102359,0.441502897225528,98.5059138313264
-15,-10,0.523598775598299,0,0,0,5,0.00964385998961959,-0.00168263560240334,0.0496490226303634,-0.0140205001039717,-0.00425690813836971,0.000114987351710601,-1.03818640379371e-06,3.06221820867206e-09,0.0017583662378213,-8.40056917813366e-05,1.05478294983145e-06,-3.77594016663542e-09,54.7224967688452,0.76398656594168,102.841890654414
-15,-10,1.0471975511966,0,0,0,5,0.0192805463225927,0.0226780949806358,0.0504060876469461,-0.0141283701969653,-1.6593723855711e-16,3.99953801051341e-18,-2.85824771229121e-20,6.28704529773174e-23,-0.00147260412286039,2.38220377382668e-05,-1.57549674819889e-07,3.70325060531532e-10,0,0.0134796726430592,194.944894568525
-15,-10,1.5707963267949,0,0,0,5,0.0351035514372029,0.0268561768857936,0.0443915747511747,-0.0141157990931692,-0.00758904488607723,0.000346878726738526,-4.5277893364786e-06,1.78766018176068e-08,0.000387129925622955,-4.17192139430264e-05,8.58222934712604e-07,-4.31816428058897e-09,16.6266940072026,0.750398204518749,86.9624450399159
-15,-10,2.0943951023932,0,0,0,5,0.0132165008112466,0.0076765652759363,0.0496578349344183,-0.0138774705820293,-0.00703332372685235,0.000304883249071589,-3.86826784354162e-06,1.50232964503782e-08,-0.00553848071283439,0.000196200529127076,-2.07642109228233e-06,6.87120473045933e-09,7.94444008847969,0.086244839076455,67.9984791499838
-15,-10,2.61799387799149,0,0,0,5,-0.0447206281537547,-0.0447209791564376,0.0524580281026834,0.00453192332003088,-0.00299950850767434,3.88356176961165e-05,2.97404130299036e-07,-3.36012443569308e-09,-0.00769341832957397,0.000355323764710417,-4.66635817523096e-06,1.84947837622908e-08,21.8175765621943,2.93652783733138e-06,66.44185896425
-15,-10,3.14159265358979,0,0,0,5,-0.0610143814801525,0.152060766367034,0.0977956157573749,0.026737658099098,0.000445718749462983,-3.67334135731334e-05,3.70724719626423e-07,-9.61016706200944e-10,0.0024177053327981,-8.12551447573619e-05,6.95202757488992e-07,-1.72686358299888e-09,152.715938517619,0.060638767283414,28.7410370692549
-15,-10,3.66519142918809,0,0,0,5,0.00714902999459888,-0.006954557371877,0.0627751438918427,-0.0151846568640287,0.000509406226141383,1.33037808045277e-05,-1.91693292795473e-07,5.4154536903388e-10,-0.00404304461808349,9.92632231217354e-05,-6.99111896303446e-07,1.49339227767455e-09,131.154942883642,0.155585359666049,44.9184604597514
-15,-10,4.18879020478639,0,0,0,5,-0.0101453170038717,0.00874490811103357,0.0484483033056398,-0.013695012005292,0.00180904654466795,-1.99509738788168e-05,6.38013767580978e-08,-5.06479129697706e-11,-0.00368421150433375,8.38983547638171e-05,-5.6752954630062e-07,1.18397506691598e-09,113.127014528732,0.2910216488436,38.8291170954403
-15,-10,4.71238898038469,0,0,0,5,0.00157021858169593,0.0292919892885113,0.0395114925489271,-0.00577742256244106,0.00217880146257453,-2.97131048738247e-05,1.31220553850175e-07,-1.89240949841501e-10,-0.00187666764901559,3.14327020655444e-05,-1.59374952055347e-07,2.51610974363674e-10,138.406373885079,0.544192040441776,10.6506098305408
-15,-10,5.23598775598299,0,0,0,5,0.00390578401860076,0.00963510846042048,0.0429246047778227,0.0131700514464171,0.00279692433052377,-5.13808294909708e-05,3.43774286442659e-07,-7.83309573627497e-10,-0.00188354614108137,4.45286889376815e-05,-3.2200064870375e-07,7.29233334140177e-10,139.420138146122,1.00425337322485,9.12601636544289
-15,-10,5.75958653158129,0,0,0,5,0.0243690852238103,0.0263965835507314,0.0517623927876629,0.0140949036364232,0.00306700393659206,-6.10743538929229e-05,4.33735644633699e-07,-1.0662313173279e-09,0.00346655365728847,-0.000122488527770162,1.15442930848427e-06,-3.20716599093406e-09,112.890610246513,0.574201193577641,47.6907433449259
-15,-5,0,0,0,0,5,0.0065689646890057,0.00560102630228698,0.0416638997647656,0.0140072311816654,0.00368463587890116,-9.00425852004178e-05,8.18095493138562e-07,-2.56144475980827e-09,-0.00312933231022612,0.000126707045917469,-1.48824794555661e-06,5.20601534855929e-09,74.9370939117271,0.80787971744004,103.95554275473
-15,-5,0.523598775598299,0,0,0,5,0.0276379432483616,-0.015535149404343,0.0518123485515631,-0.014110468929167,-0.00441205511465556,0.000130619998865416,-1.47085075809354e-06,5.60688353279973e-09,0.0029980720259638,-0.000144124855154173,2.00842119541821e-06,-8.25984996511195e-09,59.8889310576548,0.585872105421858,90.4618185971215
-15,-5,1.0471975511966,0,0,0,5,0.00392661666403527,0.012430021603798,0.0502057108727196,-0.0140650779117579,-0.00407444290663333,0.000113787827997604,-1.26143344701545e-06,4.97064408246969e-09,-0.00280561040772557,0.000183148497652914,-2.76118406939053e-06,1.17860664528558e-08,96.7903396803021,0.358273746485447,33.1303732526572
-15,-5,1.5707963267949,0,0,0,5,0.0428400433574243,0.0408134581732256,0.044676116492238,-0.0141373375496262,-0.00768327377718083,0.000354524336361403,-4.65301168349178e-06,1.84339173046247e-08,-0.000813583720415063,5.49882646413601e-06,2.52207267160275e-07,-1.79501373297094e-09,11.9494939872519,0.0139813335094831,87.4682906794046
-15,-5,2.0943951023932,0,0,0,5,0.00705979002390222,-0.00704172138049586,0.002444987728631,-0.0109438711198797,-0.0071080176917586,0.000309085123203767,-3.92730950043848e-06,1.52636434910522e-08,-0.00674036691275565,0.000279382363635144,-3.41547391372541e-06,1.28858036444011e-08,10.8419918160276,0.0955118967153255,65.6730673000936
-15,-5,2.61799387799149,0,0,0,5,-0.0316275167922342,-0.036858133804639,0.0522047571601814,0.0101958062417382,-0.00103495126008532,-4.52793372344155e-05,1.28130502627521e-06,-6.83295642367108e-09,-0.00659807141567504,0.000262113302153753,-2.96793669870729e-06,1.0193312391867e-08,26.5053179897701,0.0404385876451945,77.9283946586022
-15,-5,3.14159265358979,0,0,0,5,-0.0263465532326883,-0.0289966403514761,0.0443220043815447,0.0141089608589406,0.00029608842031642,-3.05329488480983e-05,3.02985158714882e-07,-7.6419552227247e-10,0.00492940007306728,-0.000146289125342802,1.23655375620054e-06,-3.15800104943175e-09,143.976786081217,0.0434594934860806,43.2666523432952
-15,-5,3.66519142918809,0,0,0,5,-0.00517969329602685,0.00517476039945031,0.0503842551397433,-0.0139662408646143,8.46941520172012e-05,1.1329417187685e-05,-1.03961170325578e-07,2.16596105987571e-10,0.0025384125009541,-4.35167030349936e-05,2.22356779773953e-07,-3.50899930598856e-10,214.227867471106,1.31128128935946,6.07123311954765
-15,-5,4.18879020478639,0,0,0,5,-0.0104129950560932,0.00957325166303136,0.0483693508371807,-0.0135282229340571,0.00181530880129326,-2.01069049765283e-05,6.48654768729067e-08,-5.27388395024907e-11,-0.00383678837607593,9.11433121810679e-05,-6.45291115642528e-07,1.41130100656177e-09,111.232925788871,0.31380092990419,35.7206003915995
-15,-5,4.71238898038469,0,0,0,5,0.030380478783,0.0413498991416503,0.0270158125047155,-0.0138802574002927,0.0026221951370471,-4.52868241732333e-05,2.88760099543827e-07,-6.41383767934886e-10,-0.0038951123124992,9.99044416966099e-05,-7.50153315944979e-07,1.72418562580447e-09,123.823829552954,0.424519265659102,17.7188195926826
-15,-5,5.23598775598299,0,0,0,5,0.0343155661082477,0.0413151011387045,0.0502525059571735,0.0139753754177626,0.00284094233419215,-5.3143238145273e-05,3.64846982064084e-07,-8.50361827172083e-10,-0.00351403380010741,8.67285135762301e-05,-6.41871524412743e-07,1.47178429085438e-09,137.139304998242,1.01170341138147,5.339811565604
-15,-5,5.75958653158129,0,0,0,5,0.00742520031813854,0.00715560983972097,0.049100567050119,0.013938364678631,0.00320489897618412,-6.66656075553129e-05,4.92199587675434e-07,-1.24482982898124e-09,0.00362545840017651,-0.000125552503577262,1.19315884258036e-06,-3.38673022752454e-09,106.478260580125,0.897363245979104,50.6155901908972
-15,0,0,0,0,0,5,0.0447213595484932,0.0447213595515947,0.0447362801022404,0.0141421356237312,0.00413127445328759,-0.000116565490552081,1.29013134350924e-06,-4.87593415472974e-09,-0.00498283940056876,0.000204755676485606,-2.54507740341215e-06,9.63965604159153e-09,68.7025880628115,2,98.5877136225456
-15,0,0.523598775598299,0,0,0,5,0.00802138296858068,-0.00658366016070744,0.0490145917215767,-0.0139298951283446,-0.00343772237242992,7.74417908025604e-05,-6.3426531751667e-07,1.8116352219674e-09,-0.00442974165919908,0.000168064672935453,-1.77093135764465e-06,5.59864812877086e-09,104.046225254483,0.908939973886779,47.5042193334361
-15,0,1.0471975511966,0,0,0,5,0.0433887744763162,-0.0439637573497267,0.0508410868931388,-0.0141284418406296,-0.00295808267732187,5.77062148358748e-05,-4.13780755989973e-07,9.84539206162546e-10,0.00448754087233728,-0.00012148818763533,9.39502140169445e-07,-2.197881793658e-09,130.272109891331,1.40416415919769,6.12655767005031
-15,0,1.5707963267949,0,0,0,5,0.0007774421662603,-0.00998471386662558,0.0149167458757962,-0.00391107668327059,-0.00256808264474863,4.36822903128385e-05,-2.75985400501946e-07,6.00413351873898e-10,0.00219901762804911,-4.91139858088618e-05,3.36225415897722e-07,-7.21713435926772e-10,109.910438305309,0.938284215761507,25.7144662695535
-15,0,2.0943951023932,0,0,0,5,-0.0120545867490378,-0.0106725633924469,0.0486288848387009,0.0132363972073486,-0.00179076461526488,1.93786334542033e-05,-5.88046739137239e-08,4.02533290831185e-11,0.00333486995165854,-6.85471252813477e-05,4.17180076549207e-07,-7.81681667693821e-10,107.518878428381,0.251592607220065,34.9608569587189
-15,0,2.61799387799149,0,0,0,5,-0.009234525250152,-0.00829329139509127,0.0508659056353982,0.0139640672929847,-0.000378126106342755,-1.28397308438635e-05,1.61086513723302e-07,-4.10634442020507e-10,0.00353201156019455,-7.58958682802816e-05,4.73034844158764e-07,-8.9877121126278e-10,130.656714562914,0.0974069626290846,47.1742547425105
-15,0,3.14159265358979,0,0,0,5,-0.000813189407740111,-0.00847834136414605,0.0430451936003831,0.0140767081475784,0.000515374455477385,-2.96444605837352e-05,2.54416379845493e-07,-5.71263780395733e-10,0.00294288224674415,-7.02943804507269e-05,4.62688307031222e-07,-9.08136806259821e-10,160.027041108879,0.164047741107816,50.7327913008012
-15,0,3.66519142918809,0,0,0,5,-0.0106287957306623,0.0101214548655832,0.0505473169066679,-0.0139585597394532,0.000409641221941663,1.68836497657135e-05,-2.31618545216552e-07,6.75494813288577e-10,-0.00423569219523822,0.000110274589376483,-8.34992352870674e-07,1.93048991970882e-09,126.563651393262,0.157960009140141,41.3331762016399
-15,0,4.18879020478639,0,0,0,5,-0.0446953933086416,0.0446665896218077,0.0509130920219354,-0.0141419683099981,0.000903819977972192,9.76239463691171e-07,-8.63153335552453e-08,2.65985721867423e-10,-5.09582175385868e-17,1.08231529482201e-18,-6.72146783898868e-21,1.27527268662396e-23,164.292189454637,3.34321416835133,0
-15,0,4.71238898038469,0,0,0,5,0.0112822596439255,0.0295499242793191,0.0309849519947996,0.000389525247281607,0.00269950487631881,-4.8630589782588e-05,3.29340289063092e-07,-7.48382676065586e-10,-0.00278057183360872,6.34235797674866e-05,-4.37170614345058e-07,9.37426361595033e-10,106.983061587272,0.951223021767477,27.4420742150397
-15,0,5.23598775598299,0,0,0,5,0.0115220555187374,-0.00213237071514616,0.0488795185133659,0.013922931000545,0.00295022641733398,-5.78086123961456e-05,4.16421973597809e-07,-9.92838813270984e-10,-0.00365292755619774,8.94347788419722e-05,-6.54903059124629e-07,1.48385236002978e-09,129.763820453502,1.06968737272177,8.02309081080728
-15,0,5.75958653158129,0,0,0,5,0.00802137299688965,0.00658367336494337,0.0490145918728544,0.0139298951455209,0.00343772238047087,-7.74417911764185e-05,6.34265322269252e-07,-1.81163523750409e-09,0.00442974165484571,-0.000168064673530551,1.77093136743516e-06,-5.59864816555974e-09,104.046225633391,0.908939737637949,47.5042190902005
-15,5,0,0,0,0,5,0.0312681478536376,0.0369628517604994,0.0447362802276263,0.0140869795163163,0.00351825589863517,-7.84831403811906e-05,5.91913098789235e-07,-1.57235194118572e-09,-0.000413815111908746,6.41865503295594e-05,-1.020781362199e-06,4.0680201147405e-09,84.5758129366448,1.59049746780275e-05,92.7969885678682
-15,5,0.523598775598299,0,0,0,5,0.00742520053302798,-0.00715560953326388,0.0491005670806444,-0.0139383646782327,-0.00320489897449816,6.66656074827093e-05,-4.92199586835557e-07,1.24482982623339e-09,-0.00362545840513068,0.00012555250377199,-1.19315884457652e-06,3.38673023345659e-09,106.478260585646,0.897363256178055,50.6155901631749
-15,5,1.0471975511966,0,0,0,5,0.0343155661084094,-0.0413151011385704,0.0502525059571812,-0.0139753754177629,-0.00284094233419249,5.31432381452857e-05,-3.64846982064212e-07,8.50361827172435e-10,0.00351403380009124,-8.67285135758008e-05,6.41871524409451e-07,-1.47178429084669e-09,137.139304998217,1.01170341137429,5.33981156563668
-15,5,1.5707963267949,0,0,0,5,-0.000967976473251753,-0.0103949531285856,0.032595200012131,0.00635655777560702,-0.00240122312986337,3.75064013511347e-05,-2.09931690601392e-07,4.15122125009533e-10,0.00262915903728474,-6.17177002060105e-05,4.40432434871027e-07,-9.80941432531163e-10,125.404381308238,0.806625935931223,17.0593940922056
-15,5,2.0943951023932,0,0,0,5,-0.0104674466203356,-0.00958130493549092,0.0483985356940835,0.013540552423145,-0.00180308479616022,1.97609206218026e-05,-6.19317503828984e-08,4.51931677624223e-11,0.00375119990764543,-8.70725592179261e-05,6.0177849968172e-07,-1.28411748319418e-09,110.94929643706,0.386508071582725,36.0988823883582
-15,5,2.61799387799149,0,0,0,5,0.0217257142240808,0.318204460800548,0.0940392146520801,0.0158091276882177,-0.000557824708969232,-1.00841488199306e-05,1.53018411074679e-07,-4.21152609827835e-10,0.00392769201951319,-9.25897325238963e-05,6.20808541143625e-07,-1.25643053889922e-09,131.330156234169,0.00446156647059715,44.062203558186
-15,5,3.14159265358979,0,0,0,5,-0.00734480995971154,-0.00765175486384351,0.0427453966384856,0.014017524236625,0.000389646051925586,-2.96792449228726e-05,2.72222197800661e-07,-6.43175128711945e-10,0.00376076088029827,-8.63367644164015e-05,5.69635841576645e-07,-1.14113898928521e-09,149.052877241663,0.154747889505337,53.9966806311354
-15,5,3.66519142918809,0,0,0,5,0.0201942368157546,-0.0427660412599007,0.0574164762948657,-0.0181411312330382,0.000114940636259935,2.55541289517426e-05,-3.08598514812351e-07,8.61120544018113e-10,-0.000408967583671216,3.64970868136549e-05,-3.75208776769215e-07,9.85752826104745e-10,153.800667257366,0.0048290980676479,14.3646271137097
-15,5,4.18879020478639,0,0,0,5,0.00671531675479997,0.00723776063414761,0.000596552307909448,0.0119869731651482,0.00746361679535908,-0.000340709611073336,4.5488539000407e-06,-1.85850687363074e-08,0.0069087182494784,-0.000293443704924994,3.6855057427172e-06,-1.43361390287532e-08,10.8810315262399,0.10662580073663,64.9125397508516
-15,5,4.71238898038469,0,0,0,5,0.0427629715729037,-0.0407790962942736,0.0446762435821455,0.0141375781591191,0.00636481932428395,-0.000243287141455538,2.64499983668128e-06,-8.67998750912521e-09,0.000922675627441337,-1.18924867453007e-05,-1.30382059466123e-07,1.14079082642193e-09,12.9603234638976,0,89.5403368526597
-15,5,5.23598775598299,0,0,0,5,0.027802630324965,0.0230029276416985,0.0501385822660616,0.0140839087320297,0.00343272311567352,-7.71626553986133e-05,6.2654187892724e-07,-1.67756132254856e-09,0.00234324107101333,-9.38084356659686e-05,9.21848148372612e-07,-2.60572501482229e-09,84.9766817806125,0.984058528753245,49.296680778873
-15,5,5.75958653158129,0,0,0,5,0.0404360804291599,0.0341278543469627,0.0523283075256247,0.0141359088521246,0.00442739448025263,-0.000132097965964535,1.51088358633025e-06,-5.83095980154502e-09,-0.00319777823667563,0.000149809577006544,-2.06288857120373e-06,8.43371212040982e-09,59.2643098172272,0.20723598190558,91.1333317577829
-15,10,0,0,0,0,5,0.0447213595360232,0.0447213595861697,0.0447362801053561,0.0141421356237879,0.00418238383321024,-0.000113359710218578,1.08866693788554e-06,-3.39909515781469e-09,-0.00265093822556922,0.000109226337444256,-1.24065222736799e-06,4.12559954087153e-09,65.7971328621306,3.32171041049315e-21,109.669996779758
-15,10,0.523598775598299,0,0,0,5,0.00675044326493435,-0.00775151853794398,0.0490608352816202,-0.0139329758446783,-0.00308006050506584,6.14491433724844e-05,-4.33109526388867e-07,1.04416581995212e-09,-0.00319976013085205,0.000108289364154307,-9.95122840862246e-07,2.72132650167165e-09,110.744461638256,0.899495953270283,50.9016370472587
-15,10,1.0471975511966,0,0,0,5,0.0155517009943118,-0.0299814421631872,0.0486002575057147,-0.013664886696485,-0.00277642962439071,5.06123506272328e-05,-3.36855063163282e-07,7.695355204903e-10,0.00233797869765906,-5.61077255704805e-05,4.09644589477332e-07,-9.33807279057461e-10,142.445816344814,1.00311932370227,5.74439113145537
-15,10,1.5707963267949,0,0,0,5,0.000596954787237536,-0.00958098127820506,0.00886970085553518,-0.0038261451212586,-0.0024680994841794,4.02141538091674e-05,-2.41401390018007e-07,4.95889720559463e-10,0.00204561444476566,-4.19386767690005e-05,2.65896136892384e-07,-5.3135171192443e-10,107.222094847465,0.509796678598043,39.1433909109144
-15,10,2.0943951023932,0,0,0,5,-0.0101701486725396,-0.00874390913832812,0.0484543224937788,0.0136971214003794,-0.00180849204375624,1.99349994066477e-05,-6.36742255437601e-08,5.03542332904307e-11,0.00367811210323067,-8.36157413370955e-05,5.64579034401059e-07,-1.17558479626813e-09,113.106383528948,0.284830759906578,38.8597027453925
-15,10,2.61799387799149,0,0,0,5,-0.00156250306224237,-0.00460568455971533,0.0499336867141862,0.014085984941693,0.000204664644720984,-1.28358835837105e-05,9.35508376984512e-08,-1.78374413213072e-10,-6.7830946002565e-17,1.1790085996692e-18,-6.08596276214416e-21,9.69139394569377e-24,265.19851782695,0.275780038013712,0
-15,10,3.14159265358979,0,0,0,5,-0.00807322340114069,-0.00692873687550133,0.0427465981615374,0.0140231264200075,0.0003340299470414,-2.81876952308589e-05,2.59970048968472e-07,-6.14297160742838e-10,0.00377278988331413,-8.68059954416652e-05,5.73400861171991e-07,-1.14944908276436e-09,151.796952547954,0.154793113006466,55.0893610758304
-15,10,3.66519142918809,0,0,0,5,-0.0322767614758916,0.0358355195907656,0.0522153682914124,-0.0141247335825561,0.000327492264674059,2.18041468776554e-05,-2.97793174954326e-07,8.95467019101439e-10,-0.00367872676497095,0.000110998882448861,-9.18696351649033e-07,2.26217990492826e-09,126.058733596509,0.048835598782361,32.3348238793876
-15,10,4.18879020478639,0,0,0,5,0.0132217240333841,-0.00766613062033805,0.0496566605355957,0.0138771385518733,0.00702338078727642,-0.000304014122024594,3.85157864483071e-06,-1.49363100033683e-08,0.00553886627926997,-0.00019621396398456,2.07681772764745e-06,-6.87392583789245e-09,7.94953239373875,0.0907506176351225,68.0122552599235
-15,10,4.71238898038469,0,0,0,5,0.0330421989534209,-0.0255273164004599,0.044365693186184,0.0141190571101205,0.00604934146021867,-0.000220410695517203,2.29345422749326e-06,-7.2183873483319e-09,0.00137722353086586,-3.10314424979513e-05,9.81053981048329e-08,3.05351020361217e-10,29.5831780266656,0.16201380749977,80.0993030943839
-15,10,5.23598775598299,0,0,0,5,0.00974997065010541,-0.00974033575869271,0.0491334182023611,0.0139939738911177,0.00262587452793782,-5.30670267874904e-05,4.07690519682332e-07,-1.04178791451341e-09,-0.00416671729520566,0.000109337578144251,-8.48595408674754e-07,2.02643401976771e-09,133.752168274197,1.54511654049952,9.30470373024657
-15,10,5.75958653158129,0,0,0,5,0.00964385924188704,0.00168263557078774,0.0496490226294677,0.0140205001039129,0.00425690813984349,-0.000114987351805702,1.03818640550817e-06,-3.06221821621873e-09,-0.0017583662459185,8.40056919610652e-05,-1.05478295113398e-06,3.77594016972435e-09,54.7224967040808,0.763986582383581,102.841890701441
-15,15,0,0,0,0,5,0.0082101390233511,0.00194773979298901,0.0414909080953159,0.0140273909291785,0.00391058520167737,-9.70735423979521e-05,8.06776373389628e-07,-2.19350718361483e-09,-0.0024557269428654,9.89894888964001e-05,-1.07811851793332e-06,3.42231541689119e-09,63.0963330408694,0.661234884763287,114.85017307017
-15,15,0.523598775598299,0,0,0,5,0.0061125483209743,-0.00817794131980421,0.0489743934710201,-0.0139230078472253,-0.00296618226116047,5.69028457203023e-05,-3.84564356814974e-07,8.9277789756543e-10,-0.00298563074093757,9.97612223874969e-05,-9.01338010908263e-07,2.42008608905927e-09,115.717824995106,0.901806492753782,50.4064594828172
-15,15,1.0471975511966,0,0,0,5,0.00334122365398493,-0.00996517167435051,0.0421810278326056,-0.0129208550682339,-0.00273663269013503,4.9015015443441e-05,-3.17749905940612e-07,7.07115516079292e-10,0.0014097841391929,-3.3353462146826e-05,2.41705240213068e-07,-5.48987335332753e-10,141.908139300253,4.73390781276366,8.42684636280215
-15,15,1.5707963267949,0,0,0,5,-0.0018206061420436,-0.0094283036478533,0.0345165943389816,0.000400896406533803,-0.00209800371482504,2.72898364445209e-05,-1.10790627433752e-07,1.43504649858159e-10,2.29090240389419e-17,-4.31055470446703e-19,2.29432931330988e-21,-3.66900682229721e-24,154.404642781899,0.978941147669892,0
-15,15,2.0943951023932,0,0,0,5,-0.00865483957207047,-0.0082016886431191,0.0481654770967666,0.0136922558702438,-0.00187763384887379,2.19234303099134e-05,-8.04381591548843e-08,9.31018002312811e-11,0.00382396709463591,-9.05732453516821e-05,6.39095765075703e-07,-1.39287361776728e-09,115.904015945857,0.373066815124036,40.1836462877928
-15,15,2.61799387799149,0,0,0,5,-0.0105272829884058,-0.00661701014264793,0.0505377705149219,0.0139946098758736,-0.000500336239732057,-1.30156886244765e-05,1.85065129546933e-07,-5.17472902416457e-10,0.00394231996988357,-9.50172733610214e-05,6.61782738500833e-07,-1.40311269839108e-09,134.050277808268,0.179111894263285,47.8327016502756
-15,15,3.14159265358979,0,0,0,5,0.13855511121365,0.0138368554337234,0.0577199514330808,0.0147327692464875,0.000305961173878386,-1.58811801057801e-05,1.1377514674414e-07,-2.1234461263331e-10,-0.0030312068307302,5.54732263641823e-05,-2.90130849847362e-07,4.59129464976911e-10,252.950311547588,1.70046357931948,7.00796473840438
-15,15,3.66519142918809,0,0,0,5,-0.00199048698434545,0.0122684179193797,0.0506356027229589,-0.0140812483178393,-0.00011315557908926,2.97103100526081e-05,-3.41316871857016e-07,9.86053529146881e-10,0.000602655300890648,-1.47693165876531e-05,1.10392608699435e-07,-2.57964387581406e-10,170.920417660288,1.70524692511936,0.0671055306228263
-15,15,4.18879020478639,0,0,0,5,0.0122689255142312,-0.0139608274910845,0.0505381034029204,0.0139820972782994,0.00680653466580933,-0.000288957654801287,3.60939453410379e-06,-1.38358605095528e-08,0.00302406682773902,-7.26375078912104e-05,3.73636489348207e-07,1.16583975319117e-10,7.29588522777568,0.131535887917994,75.8811088070188
-15,15,4.71238898038469,0,0,0,5,0.0334657960010318,-0.01039455814613,0.0442615498888355,0.0141023051673846,0.00460940483958517,-0.000130459275529237,1.13054857004972e-06,-3.04044507756717e-09,0.00215980356362772,-6.31154545741224e-05,4.77118183345524e-07,-1.05369242489952e-09,45.7155095459071,0.734601965198391,69.0826273637771
-15,15,5.23598775598299,0,0,0,5,0.0153385087579991,-0.00261884292779158,0.049235861080251,0.0140383898829721,0.00440935362973951,-0.000120642203761976,1.03098727418879e-06,-2.77706256484818e-09,0.0027417612456152,-5.97198068047433e-05,3.49194197455801e-07,-5.40098317429286e-10,61.2393486591491,1.71428462985985,75.9769934939825
-15,15,5.75958653158129,0,0,0,5,0.0447213595507723,0.0447213595500671,0.0524580414424767,0.014142135623731,0.0039608198272985,-0.000100971651716574,8.96623766274065e-07,-2.63468465689413e-09,0.00586976607078371,-0.000206836476576019,2.07244194803451e-06,-6.26693201583884e-09,93.9265856816016,0,50.5389780841595
-15,20,0,0,0,0,5,-0.0287059119070854,-0.00350202439865654,0.0485946658464513,0.0140596306728581,0.00354591815985819,-8.11874459531263e-05,6.41928841308923e-07,-1.68910519434224e-09,-0.00405346225727753,0.000124595955738301,-1.18132289333694e-06,3.44095866798416e-09,47.6290745947852,7.09564118374566,128.087261518731
-15,20,0.523598775598299,0,0,0,5,0.0055027166295325,-0.0085041358013811,0.0488632882841142,-0.0139104967469465,-0.00287429237287428,5.33383761596348e-05,-3.47752051902514e-07,7.82800026772347e-10,-0.00287653246612966,9.48880472299946e-05,-8.46892284903622e-07,2.24696371018027e-09,120.885132468353,0.907548132954931,49.7653471546139
-15,20,1.0471975511966,0,0,0,5,0.0148040518478272,-0.0299478604249082,0.0490450342478617,-0.0135590566309554,-0.00269365002563685,4.73418084284279e-05,-3.00743804264389e-07,6.65516151608476e-10,0.00133867162635505,-3.20275095874381e-05,2.34069964995341e-07,-5.35320105062384e-10,139.653896148555,16.016436387615,4.40225049276139
-15,20,1.5707963267949,0,0,0,5,-0.00119736158049832,-0.00937209792402882,0.031634457635576,0.00230604659186525,-0.00211162789285801,2.76904563622204e-05,-1.13933824655561e-07,1.4993346641338e-10,4.09225716157067e-17,-7.01662815963116e-19,3.52758163070317e-21,-5.42576918021608e-24,159.352732090415,0.990635743022299,0
-15,20,2.0943951023932,0,0,0,5,-0.00728998256555258,-0.00796576161052442,0.047822678779279,0.0136706832014722,-0.00197221788164716,2.47120784253642e-05,-1.04590663176261e-07,1.56622480672326e-10,0.0038779493718469,-9.34047935023892e-05,6.72288634608665e-07,-1.49702748387251e-09,118.483711528078,0.402110083469828,41.6787948663343
-15,20,2.61799387799149,0,0,0,5,-0.00650985030549478,-0.00444987714631395,0.0507223198499518,0.014050380156232,-0.00019950308016906,-8.92755037077884e-06,8.78323370041801e-08,-1.83548289730276e-10,-0.00280275299043265,4.88306649445711e-05,-2.48819542927363e-07,3.87916779252292e-10,222.498640402542,1.56126956503883,6.9589067069074
-15,20,3.14159265358979,0,0,0,5,-0.0090851308823936,-0.00489839214160526,0.0426975568884167,0.0140308755755187,0.000144366782153793,-2.40261507286272e-05,2.31203244165552e-07,-5.52874894700547e-10,0.00379504373757033,-8.76190109606056e-05,5.79833574348384e-07,-1.16357484038221e-09,155.544653011859,0.14450794900066,57.2314264552014
-15,20,3.66519142918809,0,0,0,5,-0.0358376371788189,0.0363001441255477,0.0522769053230863,-0.0136052039898148,0.000727656807049385,3.82866960469422e-06,-9.37572123041938e-08,2.57719147337605e-10,-0.00351890822535636,7.44433538890458e-05,-4.48610763173685e-07,8.16680164554879e-10,117.844830469348,0.000830603145858141,38.861224085893
-15,20,4.18879020478639,0,0,0,5,0.0407287237169083,-0.0421093339452128,0.0523767631057179,0.0141362173527021,0.00759423286031878,-0.000346590888986292,4.50163791597212e-06,-1.76540821635261e-08,0.00061437277455026,1.68693219955652e-05,-7.06953748020609e-07,4.26889648365004e-09,9.12791143521139,0.0213799211038944,79.7460514157794
-15,20,4.71238898038469,0,0,0,5,0.0447213595973412,-0.0447213595501985,0.0447362801022537,0.0141421370317424,0.00475473813043067,-0.000135718405866571,1.10153880834915e-06,-2.69822536779659e-09,0.00135887311341969,-1.81752387871681e-05,1.08497584534027e-07,-2.74217978729402e-10,0,5.85350618595471e-31,164.117442252073
-15,20,5.23598775598299,0,0,0,5,0.0447213645823989,0.0447213597187677,0.0509136300671136,0.0141421356238125,0.00434825474573463,-0.000120525335547573,1.13306452690892e-06,-3.39857816726574e-09,0.00485516881011844,-0.000157440369777784,1.43466048906995e-06,-3.92614629767366e-09,73.712,2,54.2820577915512
-15,20,5.75958653158129,0,0,0,5,0.0447213595500102,-0.0447213595501239,0.0524580414424962,0.0141421356237312,0.00475939631912031,-0.000141546687572213,1.3477233882781e-06,-4.01069697324015e-09,-0.00177250606099999,8.17279362312033e-05,-9.50806411691043e-07,3.13880955888453e-09,50.640556277693,1.36982028230805e-22,110.309325104581
-15,25,0,0,0,0,5,0.0395473489988269,0.0205814367379276,0.0447271581379702,0.0141071397078667,0.00429704463461183,-0.000116421210228333,1.03743510713497e-06,-2.91718923193957e-09,-0.00242444705852065,9.43871750639781e-05,-9.75873417126698e-07,2.93176632570195e-09,59.4007675329502,3.80398386841716e-17,120.802061581911
-15,25,0.523598775598299,0,0,0,5,0.00491389118359287,-0.00876220190055577,0.0487418868932337,-0.0138981417704082,-0.0028133199702877,5.10430470589326e-05,-3.24871186732583e-07,7.16771390104137e-10,-0.00275532955269382,9.04427989392961e-05,-8.02108274148817e-07,2.11379174589432e-09,124.216357713257,2.98702730119407,49.0241518018899
-15,25,1.0471975511966,0,0,0,5,0.00265110109284983,-0.0101274151800368,0.0420088740804274,-0.0125507028923197,-0.00266420320009173,4.61668410087359e-05,-2.86241346770876e-07,6.14595545262852e-10,0.000735755527795542,-1.73246375295667e-05,1.25364896160147e-07,-2.8487056067221e-10,139.526436982366,18.0588101353229,8.32465479725246
-15,25,1.5707963267949,0,0,0,5,-0.000694016340027304,-0.00939233853576482,0.0273307733872334,0.00359251011007655,-0.00212906376486375,2.8203471219597e-05,-1.17960967791453e-07,1.58147517402435e-10,1.4795447906213e-16,-2.45738025320031e-18,1.2099909923381e-20,-1.83391906635188e-23,164.291658453149,0.998723955471272,0
-15,25,2.0943951023932,0,0,0,5,-0.00589047062157988,-0.00805358343346896,0.0473390599730612,0.0136283581346412,-0.0020797951741513,2.79238661014044e-05,-1.32451074526682e-07,2.29452304001759e-10,0.00387113419581195,-9.35011337872888e-05,6.7714144492509e-07,-1.51986502445201e-09,120.885519535428,0.576490051675103,43.2773729487777
-15,25,2.61799387799149,0,0,0,5,0.0772377508890543,0.215724463069755,0.0606296881789143,0.0170732927064896,9.81760232017679e-05,-1.00571286312289e-05,7.30603831850892e-08,-1.34378159306117e-10,5.31613845623529e-17,-9.03945977694383e-19,4.52434901336459e-21,-6.94101159314703e-24,278.437934969935,1.75728735177622,0
-15,25,3.14159265358979,0,0,0,5,-0.00171854105627034,0.00590171458114952,0.0422781264684393,-0.0138491056549305,-0.00032962594061074,2.21779143603809e-05,-1.88664570429881e-07,4.10396224129428e-10,0.00244082751718528,-4.54537764214725e-05,2.55445009866505e-07,-4.46264892838985e-10,199.48080158081,0.000852860486131762,8.22379146097948
-15,25,3.66519142918809,0,0,0,5,0.0092802448890108,-0.012447665316266,0.0480697538791648,0.0138444540894399,0.0068130758280244,-0.000292865435006122,3.71892826811294e-06,-1.45209192286314e-08,0.00472574518819292,-0.000165371150444552,1.74292685149912e-06,-5.77006015484018e-09,6.55516895606459,0.11824365899783,68.7140487974395
-15,25,4.18879020478639,0,0,0,5,0.00202077712062376,0.0104090223590916,0.0293155216589058,0.0122136613792675,0.00276380809978876,-5.07378523210427e-05,3.47893141658585e-07,-8.21822315899201e-10,-0.00261999710214237,6.42293740119452e-05,-4.79669673847516e-07,1.11930502473672e-09,98.9097802481357,0.932087242374596,11.8161657038616
-15,25,4.71238898038469,0,0,0,5,0.0379568409196533,-0.0409469766464738,0.0446444965147039,0.0141388159738368,0.00567958421385632,-0.000193949676004711,1.88543160308821e-06,-5.53503856403958e-09,-0.00199127047548787,7.16833336745604e-05,-7.92419544618602e-07,2.59827107918951e-09,13.3420612708444,1.96617164846365,114.736493102491
-15,25,5.23598775598299,0,0,0,5,0.00763696617269005,-0.00669521452149624,0.0479838017883276,0.0140300810467561,0.00534350703226691,-0.000174469959345386,1.67053279235996e-06,-4.90519831890409e-09,0.000663678892623282,2.27146205835827e-05,-5.0808775195714e-07,2.10475730638839e-09,48.9464490463355,0.341673025512141,95.7211021492064
-15,25,5.75958653158129,0,0,0,5,0.0275486376241112,-0.0112028360552507,0.0518143849300072,0.0141189395356911,0.00479225255204303,-0.000141860937278055,1.3032041064235e-06,-3.73298488857333e-09,-0.00184681524906342,8.47681744561638e-05,-9.6584135964336e-07,3.122256090969e-09,50.3965550957491,0.146337652140658,112.400438856131
-15,30,0,0,0,0,5,0.044721359550298,-0.044721359549861,0.0447362801022262,0.0141421356237313,0.00433629407538984,-0.000117997889583898,1.03986686955805e-06,-2.87517512913283e-09,-0.00251948706469642,9.58440512720916e-05,-9.67963964072281e-07,2.84555350866005e-09,58.367091509748,1.43958333293307e-26,123.326161645229
-15,30,0.523598775598299,0,0,0,5,0.010831200970939,0.0274213415376963,0.0551744605580926,-0.0138558208830611,-0.00269450987018018,4.66031070079259e-05,-2.79726644801317e-07,5.88234341759746e-10,-0.00256389481046261,8.53375650298888e-05,-7.58848917568528e-07,1.99794670235172e-09,119.118019144472,14.0783942040063,47.9815753523979
-15,30,1.0471975511966,0,0,0,5,0.00234882657546898,-0.0101182171376806,0.0419863191034497,-0.0124225415305106,-0.00263640523377854,4.50992048386614e-05,-2.74660155598888e-07,5.81184800020433e-10,0.000494294881356764,-1.15439666379002e-05,8.31041964439559e-08,-1.8820944610886e-10,138.511089968121,24.132834336835,8.64127544335524
-15,30,1.5707963267949,0,0,0,5,-0.00127645763869388,-0.0288784772836124,0.0370548791210457,0.00364800168848167,-0.00216581985464361,2.92663747558861e-05,-1.26354332644744e-07,1.76112050563882e-10,6.58075964701853e-17,-1.10797770184165e-18,5.50406345448834e-21,-8.39462231533202e-24,169.076240057859,0.988215497014201,0
-15,30,2.0943951023932,0,0,0,5,-0.013961785576253,-0.0279116875875083,0.0498280751219253,0.0139065373730818,-0.00222198823885151,3.22798193319766e-05,-1.70652182193772e-07,3.23057360670508e-10,0.00360665986493764,-7.96911560276835e-05,5.29517619209625e-07,-1.09175353505953e-09,121.403435928704,0.163401808907406,47.0597937894906
-15,30,2.61799387799149,0,0,0,5,-0.00999781506779662,-0.00405397161391718,0.0503667833046246,0.0139912666496881,-0.000969567026373353,-1.9307818994638e-06,1.05515046119783e-07,-3.4157780091145e-10,0.00422502734011104,-0.000108918084713278,8.10706832122481e-07,-1.83653220527398e-09,139.198496171959,0.169698152473164,49.1953504281672
-15,30,3.14159265358979,0,0,0,5,0.00528178257990852,0.00122823267041028,0.0432036095112376,0.014028999860528,-0.000237664660703065,-1.65149312611386e-05,1.86757101848497e-07,-4.71250508231952e-10,0.00404955784753253,-9.95252463033397e-05,7.00323921413148e-07,-1.49359066441251e-09,157.457207835563,0.13772965844576,56.9286690752697
-15,30,3.66519142918809,0,0,0,5,-0.0345116649725465,0.0406756601529672,0.0522719820410544,-0.01410907274884,0.00167998159208114,-1.0672894774204e-05,-8.79547822916175e-08,4.91519094366322e-10,-0.00347738362268208,0.000101881909238506,-8.39736093985557e-07,2.08181742533977e-09,105.862785681849,0.0417922222075689,12.9645055723575
-15,30,4.18879020478639,0,0,0,5,0.00609406102419108,-0.0188916166291904,0.0514066785309595,0.0140809932939097,9.71808161341598e-17,-3.09405220390817e-18,2.85776592193129e-20,-8.03107045310582e-23,0.00175530102180612,-2.21618089636941e-05,9.85572759827673e-08,-1.99918732818837e-10,0,0.0597915550774164,128.693671942416
-15,30,4.71238898038469,0,0,0,5,0.0326515644657945,-0.0300642697471289,0.0443494886252527,0.0141104825637455,0.00492162442582601,-0.000151902414287861,1.51587669101421e-06,-4.77275169507136e-09,0.00512317589728875,-0.000158996432211717,1.41628837602091e-06,-3.84992039098713e-09,60.2512856220016,1.96693169189632,55.4167189207288
-15,30,5.23598775598299,0,0,0,5,0.0245815413946531,-0.0212793588328317,0.0502722536024907,0.0141171292406243,0.00566972608447573,-0.000194590397884298,1.92695083282241e-06,-5.79939974990501e-09,-0.00129757482595659,7.64232996193465e-05,-9.71411795734469e-07,3.38265905847537e-09,41.3626961977165,0.086313404963236,104.89601573551
-15,30,5.75958653158129,0,0,0,5,0.0251269057103407,-0.0149280551349946,0.0517043591196051,0.014118613793125,0.00481268426910134,-0.000141716123511187,1.25602452802184e-06,-3.44617414773971e-09,-0.00197131980179911,8.57548252534514e-05,-9.33967912883394e-07,2.90076226679647e-09,49.7206797105334,0.0945994156064005,116.475531896547
-10,-30,0,0,0,0,5,0.0430346439896248,0.0438451538890163,0.0447107348091897,0.0141403928585642,0.00271740395080752,-4.76701097504038e-05,2.96012578145876e-07,-6.64580286488076e-10,0.00516296645603042,-0.000160063944528746,1.41104521436961e-06,-3.75415203001977e-09,139.278023484897,1.37756783132744,50.0912325651391
-10,-30,0.523598775598299,0,0,0,5,0.00529325048958285,0.00406088409729932,0.0475874160287826,-0.0140267645552378,-0.00501699840098789,0.000153833864509484,-1.37242028083986e-06,3.73910499973824e-09,0.00203490865050676,-8.32144134824744e-05,8.78558605110175e-07,-2.66612385080962e-09,44.2566231850749,0.286127389386992,120.075662270427
-10,-30,1.0471975511966,0,0,0,5,0.0447214549126862,0.044721754298493,0.0509136173159941,-0.0142126709209332,-0.00390924514836119,9.91759414689242e-05,-8.93806710979647e-07,2.61882259087811e-09,-0.00440007582341875,0.000119816288075227,-1.01604166025512e-06,2.74623202447922e-09,40.9750905204127,2,176.225348523775
-10,-30,1.5707963267949,0,0,0,5,0.0161344050724939,0.0289294176713284,0.0442191358868929,-0.0141248967917541,-0.00544620903303158,0.000180756889726313,-1.73030222234064e-06,5.03399320364064e-09,0.00253220228728106,-8.81106939953844e-05,9.35203971920714e-07,-2.97773466062857e-09,13.651019789552,1.88362918850268,117.647157173816
-10,-30,2.0943951023932,0,0,0,5,0.00374746718703811,0.0200970956798123,0.0514301003255824,-0.0140818303683641,1.18841510607274e-16,-3.47679049371163e-18,3.03528834890182e-20,-8.19060481151314e-23,-0.00147387519459051,1.19643631001623e-05,2.92587615757891e-09,-9.49911025629048e-11,0,0.0699687561324823,125.749429189399
-10,-30,2.61799387799149,0,0,0,5,0.0138011546772674,0.0339188752303663,0.0504342978506673,-0.0141018643492087,-0.0072530863142724,0.000321500990355643,-4.12857584210857e-06,1.61478546460755e-08,-0.00202790561470902,2.70147426564036e-05,2.69640775573916e-07,-2.88302668929106e-09,5.79510349285548,0.0585975852832482,72.4108250856096
-10,-30,3.14159265358979,0,0,0,5,-0.00323936974461247,-0.0108030019273748,0.0432067985250573,0.0139501809298588,0.000211450289167648,-1.97533352432225e-05,1.70546146941429e-07,-3.68203494279427e-10,0.00326112868291058,-6.47026158819684e-05,3.73075270299043e-07,-6.5634858206464e-10,142.60559226316,0.0743898322393003,50.8547318670274
-10,-30,3.66519142918809,0,0,0,5,0.377955499329872,0.00745778230726657,0.0779772653291486,0.0206649863548252,0.000787373811470899,-2.81258161631367e-05,2.03814006663722e-07,-4.030971600619e-10,0.000181450526914393,-1.81113218738741e-05,1.4333551723181e-07,-2.82726071436681e-10,207.506571641257,0.334794916846846,26.4576245866185
-10,-30,4.18879020478639,0,0,0,5,-0.0121331290284168,-0.00108576075404443,0.0495103981556202,-0.0139217714703168,0.000865604092813487,-1.5577888734284e-06,-4.22023818897348e-08,1.25596321414007e-10,0.00213035273221439,-3.5600301164277e-05,1.79287688145532e-07,-2.80463871699079e-10,198.12955538706,0.911400766594159,5.35894973223917
-10,-30,4.71238898038469,0,0,0,5,-0.00342634040258538,0.00955807349127014,0.0346915018388874,-0.0112339983194482,0.00206158302700181,-2.65293853256711e-05,1.09716382622781e-07,-1.58358742564051e-10,-0.00111624089129039,2.62457720720567e-05,-1.88017394377465e-07,4.20855051601741e-10,156.101102428437,2.12107523374952,11.9487242597419
-10,-30,5.23598775598299,0,0,0,5,-0.143406339581411,0.188613933498914,0.0268772465304732,0.00555369894043666,0.00233079425258532,-3.44934126554344e-05,1.7215152613162e-07,-2.97374619019567e-10,-0.00126682555191593,2.99550890713567e-05,-2.14730688586603e-07,4.7959415132525e-10,120.207936358206,36.2038322431421,15.3405964312617
-10,-30,5.75958653158129,0,0,0,5,0.00379596412002492,0.00926914008392288,0.0485969275842004,0.0138869527290439,0.00268037723200874,-4.6257885221054e-05,2.7879008708407e-07,-5.80035519767271e-10,0.00217106596368429,-7.07236845468105e-05,6.0642095080486e-07,-1.53196418723444e-09,126.942876030115,3.7321722643128,48.7393814894695
-10,-25,0,0,0,0,5,0.0373669372999466,0.0404271692457812,0.0446074671082801,0.0141336232803799,0.00275211106408224,-4.89178060499733e-05,3.08078301146093e-07,-7.01222216067713e-10,0.00521404185856602,-0.000163548376496205,1.45873203983672e-06,-3.9269756475125e-09,135.489928554397,0.423763837146922,50.1519296713315
-10,-25,0.523598775598299,0,0,0,5,0.0403210322777632,0.0346246573424196,0.0523303986210677,-0.0141378598103069,-0.00509610389625994,0.000157960095269695,-1.4346139130426e-06,3.96985113102967e-09,0.00124951612304783,-6.52904252127815e-05,7.51676589679587e-07,-2.38145126176563e-09,46.4522886119229,0.0195489126082939,115.087182079314
-10,-25,1.0471975511966,0,0,0,5,0.0410469041790691,0.0441799956850204,0.0508938202567328,-0.0141414804921137,-0.00542780328565042,0.000178435046073764,-1.66681082682396e-06,4.69765610624409e-09,-0.00228579142197497,2.49274317847115e-05,5.88143190977129e-08,-7.2899409562024e-10,49.8084570451574,1.99804687700743,89.5662071776834
-10,-25,1.5707963267949,0,0,0,5,0.00447187361126211,0.0107351458717702,0.0425982396060514,-0.0140638278750414,-0.00452533743616556,0.00013179501451991,-1.13844516425595e-06,3.02973435346829e-09,0.00141392885315182,-5.51286621181198e-05,6.01121845274119e-07,-1.87964602535705e-09,12.5575900734176,1.25147692909135,119.453006049615
-10,-25,2.0943951023932,0,0,0,5,0.0303594784617189,0.029303657620126,0.0519102738400141,-0.0140936995081523,-0.00670833610369492,0.000275758416653905,-3.43624721851715e-06,1.32764406989469e-08,-0.00388280248524465,0.000124332685453185,-1.04717856388485e-06,2.32955447051656e-09,32.155488995436,0.241075475185014,58.811618002517
-10,-25,2.61799387799149,0,0,0,5,0.000958425427159071,0.0145084747307287,0.0486827726074388,-0.0139800601995774,-0.00606587822470641,0.0002497716556317,-3.08039566163673e-06,1.17633504591096e-08,-0.00453385852629839,0.000139333065645994,-1.18971622790603e-06,2.86148799723345e-09,6.98548514759619,0.2359238921632,64.3310833758191
-10,-25,3.14159265358979,0,0,0,5,0.0149341146458219,0.0050620272163151,0.0968551681016181,0.0177010704097723,0.000183334529991634,-1.93789544884326e-05,1.69192649726565e-07,-3.67034946092194e-10,0.00325264053796797,-6.43451973150708e-05,3.70604067813831e-07,-6.51753803879576e-10,145.086738175725,0.0693519682776084,48.6980750220571
-10,-25,3.66519142918809,0,0,0,5,-0.0585699988027173,-0.0367634853177705,0.0639971390571641,-0.0151849850985802,0.000582193639723227,1.01918560763389e-05,-1.55527104570449e-07,4.28968977329897e-10,-0.00420417083265803,0.000107410574169458,-7.90549268960272e-07,1.76864274873852e-09,142.035935545524,0.0920972270081479,47.9601530897432
-10,-25,4.18879020478639,0,0,0,5,-0.00910128677685762,0.00633857921273417,0.0483787181602224,-0.013844568170954,0.0016741365719873,-1.63197188746296e-05,3.58207639998626e-08,1.23823994318756e-11,-0.00384420421153914,9.11557199408859e-05,-6.38217017304935e-07,1.37428610864821e-09,123.951744033795,0.318544577980258,44.1300606665015
-10,-25,4.71238898038469,0,0,0,5,-0.00901560560206782,0.0288085699278398,0.042160415914819,-0.0138368012083671,0.00213983328390698,-2.90620064975989e-05,1.34164775677067e-07,-2.29508834647018e-10,-0.00187459580129829,4.89851924905219e-05,-3.72563991431572e-07,8.6548905913067e-10,146.507710548515,0.550244206189467,17.4743289177057
-10,-25,5.23598775598299,0,0,0,5,-0.0419621775403325,0.0419012437257713,0.0295294709405116,0.0115404891121376,0.00239819515526821,-3.71130911993561e-05,2.01945852518541e-07,-3.87160127542487e-10,-0.00124876848144481,2.91480542192464e-05,-2.07916297574813e-07,4.6420413287558e-10,132.538507627974,28.2673805803595,4.52606512204553
-10,-25,5.75958653158129,0,0,0,5,0.00431162720777145,0.00916346854306482,0.0487504250298203,0.0139027835081663,0.00274650579646391,-4.87012505921313e-05,3.03033395519126e-07,-6.47350363815378e-10,0.00212173305354641,-7.05129274519842e-05,6.09532925112883e-07,-1.54646964667921e-09,122.117265268084,2.89498110131874,49.5123024069043
-10,-20,0,0,0,0,5,0.0447436637728771,0.0447213595465925,0.044758606675388,0.0142125102538414,0.00280078182113637,-5.07260879446021e-05,3.26562341744222e-07,-7.60374230290273e-10,0.00531911945763962,-0.000169849625315952,1.54218876597134e-06,-4.22598191245405e-09,131.25223548763,5.79269936358079e-32,49.9794320185726
-10,-20,0.523598775598299,0,0,0,5,0.00705649720955392,0.00324639153003403,0.0487854237248455,-0.0140385111081068,-0.00496245639891323,0.000150364109973533,-1.3333159626119e-06,3.62005726921786e-09,0.00128938903984381,-6.2181553656448e-05,7.0756153097402e-07,-2.23923073212061e-09,44.9695248232869,0.274220038557839,115.759763997382
-10,-20,1.0471975511966,0,0,0,5,0.0447147208017356,0.0447135843017357,0.0509142134472238,-0.0142126943086327,-0.00526548765798084,0.00016644192967303,-1.49601445890649e-06,4.05813234099988e-09,0.0024807694231176,-7.53002591174541e-05,7.23464078578233e-07,-2.11321307784912e-09,17.4875842521313,2,128.791103486181
-10,-20,1.5707963267949,0,0,0,5,0.0447437686072423,0.0447436738220688,0.044758643833843,-0.0142126704036248,0.00270161300051747,-9.35777223347989e-05,8.31072201759971e-07,-2.14469674925581e-09,-0.00118647631108952,1.27183434059493e-05,-6.20216249620117e-08,1.58386189223456e-10,0,4.81413450243071e-29,160.382425464641
-10,-20,2.0943951023932,0,0,0,5,0.0111264338478954,0.0107575980655632,0.0499886781617667,-0.013951658942907,-0.0068110159312936,0.000284688768898233,-3.54205061081655e-06,1.3599012229772e-08,-0.00435883237274528,0.000164561521503331,-1.75513863706533e-06,5.68494927591078e-09,27.508707916278,0.397612411267472,58.8853842778847
-10,-20,2.61799387799149,0,0,0,5,0.00318888043789478,-0.00250960910925713,0.0159967770278246,-0.0124633770352886,-0.00640618447112864,0.00026052087159457,-3.25296406791757e-06,1.26332536884803e-08,-0.00687738680052558,0.000291817523732051,-3.63280409922967e-06,1.38992878299874e-08,9.99771501316423,0.0768083097013103,55.9627891946694
-10,-20,3.14159265358979,0,0,0,5,-0.00246308712792143,-0.0085357058937312,0.0429028294442233,0.013970247552785,0.000349128629888531,-2.24152873489397e-05,1.84853519905389e-07,-3.91519509182762e-10,0.00327901916388988,-6.54085287652629e-05,3.78128601800836e-07,-6.66166614720721e-10,149.621378582912,0.0776600639993465,53.5887300049568
-10,-20,3.66519142918809,0,0,0,5,-0.00619714868274457,0.00901872704394435,0.0512510287822883,-0.0141058906312667,4.82851249235649e-05,1.17851216180189e-05,-1.04064386404867e-07,2.13554210981737e-10,0.0030597023131409,-5.68072410576128e-05,3.02959906394033e-07,-4.90086008527125e-10,225.563620768669,1.62583199004538,6.19918131095587
-10,-20,4.18879020478639,0,0,0,5,-0.0106371107722474,0.00641713615387829,0.0486939411323144,-0.0138791503921963,0.00150727599491995,-1.18555558901311e-05,7.2458825609193e-10,9.47228082844007e-11,-0.00369787476289482,8.41548083182456e-05,-5.63222070866395e-07,1.15695117023988e-09,121.629460387971,0.289612776936761,43.4735839747037
-10,-20,4.71238898038469,0,0,0,5,-0.0144305061159216,0.0291638767181439,0.0431631920671922,-0.013971472117064,0.00214382401757915,-2.92275231535194e-05,1.35946117405233e-07,-2.31938730924599e-10,-0.00234629390099938,6.21988024656531e-05,-4.70554506026065e-07,1.07798187523987e-09,139.779024221429,0.375656104009541,19.2198600911465
-10,-20,5.23598775598299,0,0,0,5,0.0005591156204936,0.0101580791992149,0.0330565118583772,0.011689056259825,0.00249392000960204,-4.05111430964284e-05,2.36312807998201e-07,-4.83142304425007e-10,-0.000807878787649172,1.85671105566961e-05,-1.30826712092222e-07,2.89068283987843e-10,141.775064410743,9.02526373843776,8.9386804986128
-10,-20,5.75958653158129,0,0,0,5,0.004837858055458,0.00902224078288327,0.0488869382822843,0.0139167975771196,0.00283777159582187,-5.2117033888517e-05,3.37505106612841e-07,-7.44736587838476e-10,0.00212549107746827,-7.13777980415487e-05,6.19491512634618e-07,-1.57489292490215e-09,117.953754310887,0.914812029168094,50.7289375417192
-10,-15,0,0,0,0,5,-0.0607295308036342,0.0794703211611463,0.065290799385556,0.0140129964614,0.00334659689070527,-7.16904647241718e-05,5.28048581490255e-07,-1.30826276206652e-09,0.000765068606647806,3.36523383991046e-06,-2.24938590852999e-07,1.03671098415825e-09,101.075596857261,0.605017220519022,90.6638391384641
-10,-15,0.523598775598299,0,0,0,5,0.00831573302652444,0.00231787196419297,0.0493591117590859,-0.0140446140697747,-0.00485687474206892,0.000144232689242213,-1.26593294060121e-06,3.41750029735347e-09,0.00110014939974617,-5.4922005327524e-05,6.40910514210019e-07,-2.06143578425668e-09,45.2117185406783,0.319515077951229,114.305206656077
-10,-15,1.0471975511966,0,0,0,5,0.0594077400189725,0.0408648317706053,0.0429212645547257,-0.0122647291460498,-0.00444066713636735,0.000130589413520202,-1.0831843346983e-06,2.70318441163253e-09,0.00181604908552404,-4.96485825566319e-05,4.34598724570115e-07,-1.15843542583197e-09,20.1007621668536,0.00569244816720604,145.401358831658
-10,-15,1.5707963267949,0,0,0,5,0.00919065781997119,0.00828602201651307,0.0423352534157431,-0.0140081940596727,-0.0069047586923108,0.000292492374441339,-3.66303008603935e-06,1.41129686599891e-08,-0.00172593564821602,1.60354984904372e-05,3.8177197367712e-07,-3.22895875249916e-09,29.5687686981497,0.266821634692674,74.2185836013785
-10,-15,2.0943951023932,0,0,0,5,-0.00443484472451772,0.0120673504757498,0.0498829001018484,-0.0140329928647208,-0.00515452015996479,0.000206981376632196,-2.51543608041112e-06,9.51806809995168e-09,-0.00374295357911411,8.22408562924706e-05,-3.08370362531562e-07,-9.24279941011765e-10,8.01683318268299,0.360732316522326,71.1408678888397
-10,-15,2.61799387799149,0,0,0,5,0.000107344077875382,-0.00463923546575629,0.0472358514354814,0.0139978345353679,0.00110177139157353,-0.000124880872635778,2.14325134659295e-06,-9.70311750169307e-09,-0.00643587338976521,0.000304851070836482,-4.08212491715613e-06,1.64136145067953e-08,74.3410513328375,0.836039518389353,69.2626951524711
-10,-15,3.14159265358979,0,0,0,5,0.00261960866952649,-0.0183577989609827,0.0435378379058884,0.00841069821826593,0.00241884521545673,-0.000175798200931083,2.77442789067096e-06,-1.22137072015271e-08,-0.00640352979825344,0.000248117597837761,-2.75926730316102e-06,9.43331334319311e-09,38.1196567501658,0.147550969223772,87.5406789879417
-10,-15,3.66519142918809,0,0,0,5,0.0119040438416818,-0.00458272480508626,0.0853327641588066,-0.0208223859552369,0.000281162162813042,1.82751403076735e-05,-2.23813806395459e-07,6.05643752662674e-10,-0.00364170252417952,9.60243465817668e-05,-7.18610206241617e-07,1.62457773044637e-09,142.971530883413,0.476182853816435,40.3083939207767
-10,-15,4.18879020478639,0,0,0,5,0.182457630705578,-0.0559143748316941,0.0560372994337026,-0.0140560681136837,0.000491329161653802,3.37192490330007e-06,-5.68903264744597e-08,1.3140719844128e-10,0.00230510536684323,-3.79200736534999e-05,1.86392185839467e-07,-2.83309709650336e-10,210.769987064643,0.52872783495223,2.69440625491728
-10,-15,4.71238898038469,0,0,0,5,-0.0158186535378775,0.0301240424810114,0.0433557857066749,-0.0140086980442544,0.00223421386481804,-3.21828760049835e-05,1.6403550708168e-07,-3.04329001476426e-10,-0.0029587151506247,7.74880514821398e-05,-5.78995571007172e-07,1.30957861083203e-09,131.483217545214,0.353467803385608,21.6020280845785
-10,-15,5.23598775598299,0,0,0,5,0.0195348558032791,0.041272763874197,0.0499279119203164,0.0137135768998959,0.00252237424374027,-4.15454549620815e-05,2.48406753580241e-07,-5.21428123111169e-10,-0.000687687963138896,1.67537884964744e-05,-1.21389551112835e-07,2.71307569099665e-10,136.055197545658,0.932207391585665,16.7434998902873
-10,-15,5.75958653158129,0,0,0,5,0.0217281754654675,0.0283337707456077,0.0517637237408239,0.0140930737428164,0.00296982727637834,-5.72433200013101e-05,3.93430588110969e-07,-9.1528172682613e-10,0.00227062841912084,-8.24072740600739e-05,7.42427176497482e-07,-1.9284146561541e-09,114.843426067303,0.746165408068697,47.7704041162079
-10,-10,0,0,0,0,5,0.0236215172781229,0.0262997859145209,0.0440992076477613,0.0141026758134621,0.00303067775461591,-5.98997155403738e-05,4.28696090658333e-07,-1.10522590547648e-09,0.00560226760972905,-0.000191493708317448,1.86081445112465e-06,-5.45959343238298e-09,122.070445015738,0.598391952860496,48.9339662563834
-10,-10,0.523598775598299,0,0,0,5,0.00949384469198122,0.000942858287189097,0.0497959634605407,-0.0140492633860423,-0.00471153141282227,0.000135963339205176,-1.17632766276733e-06,3.15069866619729e-09,0.00102678005598249,-4.99313622282955e-05,5.88638739410451e-07,-1.91330885252926e-09,45.3767547843823,0.405236975506128,113.401403757643
-10,-10,1.0471975511966,0,0,0,5,0.0447262088733016,0.0447142570039745,0.0509141706924623,-0.0142126706705996,0.00369666042667197,-8.21622691840426e-05,5.19210986813825e-07,-9.90203972338607e-10,-0.00134044813560397,2.01994289893731e-05,-1.30518568312371e-07,3.10647668409451e-10,0,0,192.207011800574
-10,-10,1.5707963267949,0,0,0,5,0.031983117276388,0.0326568315088984,0.0443758714292954,-0.01412127562057,-0.00752169142828654,0.000341787119382426,-4.44706966695198e-06,1.75248986819309e-08,0.000409662132730762,-6.28463571267461e-05,1.28624558749541e-06,-6.49527892466655e-09,10.811549748927,0.242495543735117,85.6191500364656
-10,-10,2.0943951023932,0,0,0,5,0.00554852335367073,0.00367854472419538,0.0480092712770785,-0.0139124614066328,-0.00697072540128741,0.000298744485024683,-3.76607775385843e-06,1.45689323440147e-08,-0.00665637739935992,0.000271895167715501,-3.21852456498315e-06,1.17188005942788e-08,11.931245746351,0.167427082692492,57.7451817269869
-10,-10,2.61799387799149,0,0,0,5,-0.0419253177412493,-0.0433579829173318,0.0524093750432031,0.00714380623745947,-0.00106761710555094,-4.61493131316683e-05,1.32901736171256e-06,-7.13949876774997e-09,-0.00737975204165612,0.000328263718432536,-4.15393797252512e-06,1.58897129091937e-08,28.8311256994247,0.00617710319760908,68.7266739134748
-10,-10,3.14159265358979,0,0,0,5,0.0111307888372423,0.00538328170264535,0.0322077776660694,0.0119883693088403,0.00087648069538119,-3.61058890298727e-05,2.90362704189265e-07,-6.35112102321831e-10,4.88340187759463e-05,-1.71119902886774e-05,1.64032775669399e-07,-3.83594578483629e-10,185.180350247466,0.0653142635941975,28.9011530814747
-10,-10,3.66519142918809,0,0,0,5,-0.010069821512861,0.00786960210424681,0.0504063840578399,-0.0139684883058243,0.00015900926472403,2.07550757289486e-05,-2.4072473458346e-07,6.55335110922424e-10,-0.00426475951416588,0.000111644695074963,-8.47607112872056e-07,1.9624153336242e-09,138.208161687563,0.157863228936011,44.2695106111363
-10,-10,4.18879020478639,0,0,0,5,-0.0115407579011073,0.00796343891440188,0.0486781186657934,-0.0138108713051405,0.00133881158787852,-7.24902034281903e-06,-3.77800456906822e-08,1.94601239681221e-10,-0.00392075358060634,9.49117259208824e-05,-6.7898302843973e-07,1.49428600249836e-09,119.047267219539,0.268557012647591,38.3975290457879
-10,-10,4.71238898038469,0,0,0,5,-0.00214856750977077,0.0101004572643859,0.0317767291271558,-0.00895040956604112,0.00239174697638221,-3.78635004583684e-05,2.22583476566457e-07,-4.57335422787118e-10,-0.00300804720308406,6.69857620513171e-05,-4.53175996792968e-07,9.56561591841547e-10,116.930789874551,0.853222141679506,29.0464901177543
-10,-10,5.23598775598299,0,0,0,5,0.0362404649513373,0.00445227135256943,0.0506664548722036,0.0141274549075856,0.00429370596453266,-0.000110832319952482,8.14610904372996e-07,-1.80833515406605e-09,0.000346489468240302,-8.92167519568791e-06,1.92112584536063e-08,6.91078258316514e-11,22.0522003870375,0.104053059678859,111.49582558027
-10,-10,5.75958653158129,0,0,0,5,0.0241277918758094,0.0269306241752147,0.0518031866363424,0.0140993619474383,0.00298591138705378,-5.77046822046074e-05,3.94738103245571e-07,-9.11928675755021e-10,0.00262147328204051,-9.0386813547473e-05,7.98789120776731e-07,-2.05383518028466e-09,107.825559250487,0.568058347822717,50.4578213400872
-10,-5,0,0,0,0,5,0.0447213595501097,0.044721359549925,0.0447362801022475,0.0141421356237308,0.00326526119284491,-7.02216410456062e-05,5.59508195889521e-07,-1.60928054264371e-09,0.00615287031096765,-0.000227269452829421,2.38700471676146e-06,-7.56628775658413e-09,117.642864616658,1.28561133670831,46.5713404253845
-10,-5,0.523598775598299,0,0,0,5,0.0314925714631435,-0.00807690286017859,0.0520440119630297,-0.0141241004187545,-0.00465659142201261,0.000133385154467026,-1.17679358634982e-06,3.22474583103803e-09,0.00125455755462544,-5.13284831355616e-05,5.83346307605013e-07,-1.88117013809115e-09,42.7042092893574,1.771621399887,113.930017055877
-10,-5,1.0471975511966,0,0,0,5,0.0109399386698534,-0.00996592921006823,0.0458730220652697,-0.0137433644262855,-0.00393930298712468,0.000106457258017662,-1.14203175484078e-06,4.40617502473957e-09,-0.00266223613056261,0.000133843644846198,-1.75816692284357e-06,6.85092503308646e-09,78.4862687980399,0.416624382648486,50.0614880676188
-10,-5,1.5707963267949,0,0,0,5,0.0171796423829349,0.0137647544282311,0.0433193882773333,-0.0140363691091476,-0.00707666534928522,0.00030790007536299,-3.91435797175411e-06,1.52200529434374e-08,-0.00164927569293765,1.13086680882592e-05,4.31430597670838e-07,-3.34070000055068e-09,8.91171916366951,0.135944573849576,81.7505423376309
-10,-5,2.0943951023932,0,0,0,5,-0.0121697328352504,-0.0174707476982974,0.0483293913097942,-0.00612505289579627,-0.00663525625032777,0.000270379079195228,-3.30870587636407e-06,1.25596187493809e-08,-0.00719219512654831,0.000313795523885609,-3.9314490117517e-06,1.50289975170919e-08,15.5037682432044,0.19529040586283,59.6503006659622
-10,-5,2.61799387799149,0,0,0,5,-0.013631513915513,-0.0188557135944212,0.0511690063819623,0.0118088050493352,-0.000552862765327341,-4.78268504854524e-05,1.1877615815154e-06,-6.17646094599933e-09,-0.00654187500918899,0.000258429220698718,-2.92305604027898e-06,1.01104023851157e-08,35.3475859058097,0.140052899521617,79.6986638264144
-10,-5,3.14159265358979,0,0,0,5,-0.0231942587424356,-0.0294847253272259,0.0443080276920251,0.0141079642883522,0.000598679324733153,-3.64223973869536e-05,3.39544966177158e-07,-8.50739071688175e-10,0.00453660107997226,-0.000123947051648163,9.64819747917452e-07,-2.26944899360189e-09,147.436137674045,0.0472465283268571,45.2587647725607
-10,-5,3.66519142918809,0,0,0,5,-0.00417601971677861,0.00549750240778835,0.0502477866700497,-0.0139707204930471,-4.41059041607691e-05,1.35284569474454e-05,-1.14615413514654e-07,2.32349908055035e-10,0.00257020271054846,-4.41896235551004e-05,2.26160928228838e-07,-3.57248200624816e-10,216.466676013128,1.35033732799951,6.0901349178178
-10,-5,4.18879020478639,0,0,0,5,-0.0121314183423458,0.00896612425583143,0.0486877234342433,-0.0137610818066099,0.00129567240991519,-6.05865132528713e-06,-4.7863136816619e-08,2.20829700554247e-10,-0.0039001389391925,9.40571185758168e-05,-6.71563825155476e-07,1.47633777424957e-09,116.877687956605,0.278375003471445,36.2513109341732
-10,-5,4.71238898038469,0,0,0,5,-0.0446870904169412,0.0446879753983289,0.0447349054821347,2.204129810523e-06,0.00181482834105689,-1.92177767177382e-05,4.91242185270806e-08,-1.72930443793303e-11,-9.32094568165148e-05,1.5375997575019e-06,-7.7300358612455e-09,1.2144049254242e-11,146.387829256883,0.027427664894193,0.0293787778672885
-10,-5,5.23598775598299,0,0,0,5,0.0349617378967686,0.00363261551298422,0.050623635314234,0.0141255816341292,0.00428562324763559,-0.000110446084408521,8.11041223207801e-07,-1.79941958397467e-09,0.000644993114662919,-1.68082885267137e-05,7.81402119434478e-08,-6.1744152624663e-11,39.5523887807177,0.256385766050687,94.8849634445261
-10,-5,5.75958653158129,0,0,0,5,0.0436882224330759,0.0437990782267264,0.0524335548824091,0.0141405171311999,0.00332669487959329,-7.1788070780075e-05,5.49874729713716e-07,-1.36901649514622e-09,0.00246747710253696,-8.86144309122743e-05,7.98467992730042e-07,-2.07671884911998e-09,101.039862777661,1.55121367680275,51.5863634589349
-10,0,0,0,0,0,5,0.0392740266612748,0.037845465228564,0.0445971174972861,0.0141363905031929,0.00415596113893607,-0.000117710064847474,1.30293790851968e-06,-4.91691628858572e-09,-0.00422603078758486,0.000179670240076278,-2.29132564353992e-06,8.83190743103137e-09,67.5694180235584,1.38510973076427,96.9790612811543
-10,0,0.523598775598299,0,0,0,5,-0.0446331445142487,0.0118311511436566,0.0490973953828777,-0.0141238685061727,-0.0022840587982784,4.30791476473125e-05,-3.02076657739345e-07,7.00260172937054e-10,0.00237081205677579,-3.62697079116878e-05,1.69586533593074e-07,-2.41745462512859e-10,162.168224869414,0.190189335142057,14.5602381326356
-10,0,1.0471975511966,0,0,0,5,0.0241961680999463,0.0193281916809371,0.0503803486321093,-0.0141150549536069,-0.00157070021628803,1.98079892434461e-05,-8.97461822185499e-08,1.32518074514834e-10,0.00267895353826073,-4.36470140090119e-05,2.04617752210543e-07,-2.91196584164794e-10,164.708901459576,0,4.29272046016934
-10,0,1.5707963267949,0,0,0,5,-0.00267049368762429,-0.00956739534019135,0.0310742232293411,-0.00168790339350423,-0.00220232390171135,3.18693420258914e-05,-1.68316778956049e-07,3.0464422695258e-10,0.00224838080896114,-4.26684305866949e-05,2.4775052439659e-07,-4.5061794611504e-10,108.478658378204,0.428116301760005,28.520638165223
-10,0,2.0943951023932,0,0,0,5,-0.0141246313841119,-0.0101507675189652,0.0490639260309225,0.013588105834097,-0.00126188015446253,5.53667245970239e-06,4.66103178829159e-08,-1.92528564632278e-10,0.0033992561491007,-7.08625514620302e-05,4.34660671335274e-07,-8.18286862067707e-10,113.246286642618,0.185693064145404,35.902603703943
-10,0,2.61799387799149,0,0,0,5,-0.00701779199711439,-0.00808514539573224,0.0506035734925345,0.013938768778797,-0.000120062510595756,-1.79658289870674e-05,1.90258253210289e-07,-4.61482273863753e-10,0.00350790198809162,-7.49819319656218e-05,4.66015850300754e-07,-8.83967901427472e-10,134.73878155667,0.105758141658503,47.392446828778
-10,0,3.14159265358979,0,0,0,5,-0.00706199534504748,-0.00958951037185685,0.0427328968262852,0.0139921298579467,0.000645986510064021,-3.66789976595988e-05,3.35834676863888e-07,-8.35710537599722e-10,0.00432805095648146,-0.000114752338278673,8.77614703616741e-07,-2.04184452588123e-09,151.751141216516,0.132950046861927,47.5872745253942
-10,0,3.66519142918809,0,0,0,5,0.0089784694449655,-4.89064901003644e-05,0.0652776890335094,-0.0155150749632353,0.000161396246644378,2.18087635479839e-05,-2.58799608810199e-07,7.20754518990348e-10,-0.00428816838426172,0.000112752825258729,-8.58467432997382e-07,1.99134157776252e-09,131.532701574882,0.144450176129249,40.0959723454692
-10,0,4.18879020478639,0,0,0,5,-0.0293834304079184,0.0250289322712218,0.0505838028153178,-0.0140795926959447,0.000564431709440005,6.83014538893679e-06,-1.11401795727823e-07,2.91158228658458e-10,-1.31719631433577e-16,2.64229411805667e-18,-1.56710999008039e-20,2.85578040514284e-23,173.136212608084,4.98904738391957,0
-10,0,4.71238898038469,0,0,0,5,0.0187526545463754,-0.0100030329884252,0.0433155271625107,0.0140189680894683,0.0054817376511519,-0.000184066913162533,1.79580616234017e-06,-5.34382590109903e-09,0.00430676162801199,-0.000117148324131997,9.38912147699681e-07,-2.3333375051804e-09,8.08103655213409,0.0191366374203334,79.2720774284979
-10,0,5.23598775598299,0,0,0,5,0.0138284903519104,-0.0164798272876192,0.0500167939430334,0.0141149666384619,0.00274894881303572,-4.66047166515596e-05,2.30226580043516e-07,-3.47346576874453e-10,0.000357299598493642,-1.73113036300773e-06,-1.62744585485484e-08,5.74850761728838e-11,12.2316688168388,0.29558783576563,153.6201978967
-10,0,5.75958653158129,0,0,0,5,0.0269912109342485,0.0239743529632648,0.0518491162187038,0.0141062338995221,0.00329254467745496,-6.97182322476173e-05,5.13935440268613e-07,-1.23980828282798e-09,0.00321214887795943,-0.000103199185107923,8.855633170088e-07,-2.24031089181111e-09,95.0282313315241,0.467408388235131,55.2814494760783
-10,5,0,0,0,0,5,0.00784744945428884,0.00463793162932546,0.0418144862612664,0.0140209776389427,0.00382687405434741,-9.51511235059598e-05,8.40568818879167e-07,-2.50076977859739e-09,-0.00237090296587247,0.000102629061712107,-1.22002521623113e-06,4.22418398977923e-09,66.2830031694424,0.742830588799217,106.096219125597
-10,5,0.523598775598299,0,0,0,5,0.0436882224340955,-0.0437990782268827,0.0524335548823962,-0.0141405171312,-0.00332669487959635,7.17880707802058e-05,-5.49874729715234e-07,1.36901649515085e-09,-0.00246747710253232,8.8614430912176e-05,-7.98467992729399e-07,2.07671884911866e-09,101.039862776339,1.55121367812664,51.5863634589257
-10,5,1.0471975511966,0,0,0,5,0.0394586763170146,0.0378608392014392,0.0508336781779544,-0.0141392499993427,-0.00110193305688895,1.180448813366e-05,-4.81491015863684e-08,7.37759125791004e-11,-4.05222663109383e-17,7.48950538123705e-19,-4.03879505433784e-21,6.64616481431424e-24,205.893968808375,0.0135698861552703,0
-10,5,1.5707963267949,0,0,0,5,-0.000981731763296523,-0.0289848832212698,0.0271581061968984,2.68750163226125e-05,-0.00256553740449714,4.48885499665105e-05,-3.07465765017041e-07,7.21621001114946e-10,0.00314712944852863,-7.10516354706032e-05,4.90802522377986e-07,-1.06204857423814e-09,104.700113985224,0.475185940514129,33.9935806930357
-10,5,2.0943951023932,0,0,0,5,-0.0122553585577432,-0.00895168707022975,0.0486943525567662,0.0137616451678237,-0.00130103019464438,6.17527450155706e-06,4.73097407569127e-08,-2.21143123763324e-10,0.00395517990075556,-9.67432333354741e-05,7.00731109258002e-07,-1.56291046531302e-09,117.063005417937,0.253069322657363,36.0017823757074
-10,5,2.61799387799149,0,0,0,5,-0.00810525935645856,-0.00796546593920766,0.0504432434336834,0.0139662324214506,-0.000102431346651465,-2.0662808216231e-05,2.24805066442526e-07,-5.66693669610476e-10,0.00368124208326332,-8.28290945292444e-05,5.40894375079941e-07,-1.07728206619475e-09,133.67429934797,0.137785883825641,47.101339962133
-10,5,3.14159265358979,0,0,0,5,0.0293923279765238,0.032927617179312,0.0444951598055998,0.00117526694059085,-0.00858623072932377,0.000445326750985488,-6.57609366978222e-06,2.93944184097954e-08,-0.00503782602384974,0.000184675266091237,-2.90487666135005e-06,1.65927144967111e-08,56.3258723002739,62.0444492820752,65.0072823426534
-10,5,3.66519142918809,0,0,0,5,-0.0290376793762022,0.0305388677085539,0.0519961449679314,-0.0140420258464186,-8.5207642388089e-05,2.87341178842215e-05,-3.16774210234751e-07,8.46177580498066e-10,0.00385389104204162,-9.65153101249865e-05,7.16769208206219e-07,-1.63979694364689e-09,166.506717209374,0.280496113951409,4.49049886020949
-10,5,4.18879020478639,0,0,0,5,-0.032456208799621,0.0360631313315372,0.0503914967173644,0.00552783995692548,0.00704017560445583,-0.000302655824235294,3.89748498029127e-06,-1.55555548186498e-08,0.00716148865255631,-0.000309754397889054,3.82742477515393e-06,-1.43967766046169e-08,14.9900371519671,0.0595929010256984,59.1899548619294
-10,5,4.71238898038469,0,0,0,5,0.0145326690754146,-0.0165411162516742,0.0434261549559158,0.0140586627881594,0.00572097377040151,-0.000204127683727416,2.13841111949752e-06,-6.86717230850198e-09,0.00230017522810649,-3.39458882592214e-05,-2.03377909668975e-08,9.7198580801405e-10,6.77040460845811,0,87.9568227723979
-10,5,5.23598775598299,0,0,0,5,0.0307302371528557,-0.0273282067006173,0.0505594630912176,0.0141297330379446,0.0050794031464771,-0.000155669096690415,1.36349836274549e-06,-3.61379858637698e-09,-0.00090543003235444,3.53365541610672e-05,-4.06840994655676e-07,1.31144474822231e-09,14.5873326176387,2.56199962780109,120.025427968909
-10,5,5.75958653158129,0,0,0,5,0.0111076756044532,0.00152250750745608,0.0502551930609076,0.0140521212363602,0.00452366175029584,-0.00012604954338208,1.07469214488669e-06,-2.8609267474564e-09,-0.00109194549291571,4.76432231963801e-05,-5.52983279972763e-07,1.79758837818016e-09,45.035468638131,0.928206289645144,113.507426720412
-10,10,0,0,0,0,5,0.00843324273297696,0.00317715012059239,0.0418225564667543,0.0140333953380873,0.00389492374977379,-9.64177432420734e-05,8.02407418508928e-07,-2.18781037742692e-09,-0.00205254175743712,8.5677786194876e-05,-9.58539283604399e-07,3.09884842650587e-09,61.7705850506283,0.652067190160484,113.133591153712
-10,10,0.523598775598299,0,0,0,5,0.00631382383521029,-0.00802151813229557,0.0491629800798843,-0.0139509317292213,-0.00296835664013755,5.68492384562962e-05,-3.81149655961823e-07,8.59297437803955e-10,-0.0025219694398749,8.20631367073485e-05,-7.03383518048254e-07,1.77559764187715e-09,105.160532388561,0.865988039149614,54.1829466864367
-10,10,1.0471975511966,0,0,0,5,0.0410267678031833,0.0382051166933977,0.0508517043094556,-0.0141395844148994,-0.00131363253250276,1.49595539977016e-05,-6.16882982734257e-08,9.04413701442219e-11,-1.36959739188472e-16,2.41761026031416e-18,-1.25067412551872e-20,1.97906962560472e-23,193.939847966657,0.015169035630006,0
-10,10,1.5707963267949,0,0,0,5,0.00308561937853469,-0.0308032717909477,0.015509281573225,0.0109094163046244,-0.00260054690507861,4.52115794013528e-05,-2.97645382725983e-07,6.69306101515982e-10,0.0037396135159383,-8.95282893675599e-05,6.3652951682202e-07,-1.39525576628872e-09,114.743650672313,0.875260461638155,29.7082353651446
-10,10,2.0943951023932,0,0,0,5,-0.0120144995231701,-0.00793264271759142,0.0487928282367038,0.0138394861989762,-0.00132300675836918,6.943750712381e-06,3.86720823714811e-08,-1.90704615501358e-10,0.0037493002468918,-8.66682235652469e-05,5.90604471611317e-07,-1.23662018458756e-09,118.455199856573,0.247159826090267,39.2908417029423
-10,10,2.61799387799149,0,0,0,5,0.308178292594349,-0.00996338146567233,0.0388116102888696,0.0208083896989704,3.57888065433313e-06,-1.21715261641113e-05,1.03018503472218e-07,-2.0548464438836e-10,-0.00207431612389615,3.21244970779543e-05,-1.53007989674574e-07,2.2893433172764e-10,223.697372975517,0.816089003426755,4.98466662382284
-10,10,3.14159265358979,0,0,0,5,-0.0173031943973569,0.0316866325609642,0.0443771426473485,-0.0141190558260782,-0.000913345919570254,4.29215712219825e-05,-3.7821924095811e-07,9.02897865264653e-10,-0.00170251813991349,6.98103798489658e-05,-6.51951230355575e-07,1.71363226768767e-09,164.928116157291,0.0498305223434187,32.284286601857
-10,10,3.66519142918809,0,0,0,5,-0.0034204886441529,-0.00853708610520165,0.0499582462653403,-0.0138421557581159,-0.000139565684175965,3.10336371156378e-05,-3.43471517645241e-07,9.30933892020077e-10,0.00105477318641775,-2.5052279242911e-05,1.80177056801384e-07,-4.03812737058018e-10,157.840105213253,0.184329742004153,9.42913849640348
-10,10,4.18879020478639,0,0,0,5,0.0215006481484483,0.0114534675506324,0.0503639768965707,0.0140404669614841,0.0075647941735694,-0.000344889246625014,4.49214666508673e-06,-1.77019067623204e-08,0.00669913664470091,-0.000271416063444835,3.16149880883723e-06,-1.12831277562788e-08,11.1118135211136,0.0292835506067064,56.8493494202429
