x,y,phi,kappa_end,vw_x,vw_y,v,xtol,ytol,phi_tol,kappa_tol,q1,q2,q3,q4,q5,q6,q7,q8,q9,q10,q11
-95,-20,5.7595865316,0,0,0,5,0.0659172536,-0.0082264936,-0.0500093801,0.0140430728,0.0031491554,-6.21800801058367E-05,0.000000398,-8.34968682517212E-10,0.0013686816,-5.110176047957E-06,-1.26229304616707E-07,5.88052822802508E-10,132.7326176778,19.880398595,98.5058069311
-95,-95,0.5235987756,0,0,0,5,0.007782568,0.0065085616,0.0492976851,-0.0140323601,-0.004149581,0.0001054463,-7.95198553275964E-07,1.84729101404192E-09,0.003238947,-0.0001000742,8.33060280511543E-07,-0.000000002,66.1222246665,62.3096738581,141.9512472466
-90,-90,1.5707963268,0,0,0,5,0.0447133916,0.04471076,0.0447360645,-0.0141421216,-0.004677668,0.000138581,-0.000001369,4.41335356977176E-09,0.0047337612,-0.0002066058,2.43158042587794E-06,-8.45862725523588E-09,86.3334553998,28.7486665295,99.790479458
-100,-20,5.7595865316,0,0,0,5,0.0091639441,0.0026353922,-0.0498003005,0.0140139501,0.003299922,-6.9201431529307E-05,4.87518026724874E-07,-1.12279385450017E-09,-0.0029678772,9.15275316400823E-05,-7.85886543571893E-07,0.000000002,108.3858945178,8.8122059888,132.7481949779
-95,-20,5.235987756,0,0,0,5,0.0281299169,0.0158866097,-0.050213134,0.0140906484,0.0030961133,-6.02919363688547E-05,3.86665032766342E-07,-8.21115767671671E-10,0.0044512805,-0.0001214964,9.44717556279409E-07,-2.2209747104688E-09,153.6601146469,13.4653178026,53.5228124406
-90,-90,1.0471975512,0,0,0,5,0.0437150464,0.0434809031,0.050889602,-0.0141409736,-0.0045074239,0.0001271182,-1.15145658854833E-06,3.26364626420737E-09,0.0039680388,-0.000144011,1.41094054413618E-06,-4.08755371014404E-09,71.9858125384,45.1121280088,120.274804713
-95,-20,4.7123889804,0,0,0,5,0.0438244309,0.0430384935,-0.0446887099,0.0141376235,0.0030325111,-0.000057888,3.65242044334262E-07,-7.65269994410661E-10,0.0034848754,-0.000101497,0.000000808,-1.91098745399023E-09,151.674108058,11.8163650909,45.4196301236
-90,-90,0.5235987756,0,0,0,5,0.0078280436,0.0063664524,0.049222995,-0.0140329216,-0.004111931,0.0001036047,-7.77919314454652E-07,1.80262377270836E-09,0.0032965823,-0.0001009685,8.37602961244286E-07,-2.05699540423488E-09,66.6250218895,54.4108854839,142.2549136525
-100,-20,5.235987756,0,0,0,5,0.0090643388,0.0033414602,-0.0476809677,0.0139225714,0.0031154532,-6.10557126375714E-05,3.91648333043E-07,-8.22537487870749E-10,0.0039135178,-0.000103927,7.95439805990379E-07,-1.85390777527111E-09,152.4355542005,18.4249842282,56.0571952639
-95,-20,4.1887902048,0,0,0,5,0.0079190591,-0.0057109059,-0.04905089,0.0139033047,-0.0029545237,5.53453864750029E-05,-3.46209335107071E-07,7.17756979979203E-10,0.003896376,-0.0001006084,7.54521735866344E-07,-1.72931412093577E-09,143.0970104717,0.9952480402,56.8702844697
-100,-20,4.7123889804,0,0,0,5,0.040476744,0.0365860415,-0.0445065962,0.0141206358,0.0030451755,-5.8367598133432E-05,3.69613887961858E-07,-7.77109642924338E-10,0.0035378759,-0.0001024298,8.14319645577903E-07,-1.92742193291228E-09,150.5381639229,16.8176182696,46.0343109716
-95,-100,5.7595865316,0,0,0,5,0.0094427672,0.0023715246,-0.0499119257,0.0140241126,-0.0037220692,8.65376355822618E-05,-6.4345561932261E-07,1.54857110254205E-09,-0.0017206146,4.72293003873446E-05,-0.000000316,5.55396796973402E-10,91.4451646015,1.2574453482,153.263435663
-95,-20,3.6651914292,0,0,0,5,0.0447228994,-0.0441247918,-0.0509206753,0.0142129209,-0.0031655224,6.33346440047533E-05,-4.23439878568724E-07,9.38945168182863E-10,0.0036347635,-0.000109967,9.09699559706021E-07,-2.2357736839817E-09,128.9536060183,16.6643070323,43.0358293425
-100,-20,4.1887902048,0,0,0,5,0.0447285593,-0.0447453911,-0.0524580774,0.0142126704,-0.0031032256,6.09624463698259E-05,-4.01645013914595E-07,8.77811570657051E-10,0.0045740956,-0.0001256018,9.80698952895943E-07,-2.31096179984722E-09,139.751372861,11.254615706,52.2899673703
-95,-20,3.1415926536,0,0,0,5,0.0406508864,-0.0342691005,-0.0439351065,0.0140235562,-0.0031551693,6.28845507067754E-05,-4.16525826782036E-07,9.23297134753208E-10,0.0011106224,-4.08854752987866E-05,3.73330075190599E-07,-0.000000001,167.8214416443,0.9596427182,16.456649444
-100,-20,3.6651914292,0,0,0,5,0.0280726409,-0.0171790784,-0.0494562618,0.0139882227,-0.0032342885,6.61984469317841E-05,-4.53578066273322E-07,0.000000001,0.0034164537,-9.75133439800922E-05,7.88418611982306E-07,-1.92695704855998E-09,128.5326813633,18.9753603072,46.030719781
-95,-20,2.617993878,0,0,0,5,0.009741814,-0.0028628122,0.0138749319,-0.00827879,-0.0031138906,6.05289037379636E-05,-3.75627184691133E-07,7.5773476150827E-10,-0.000400083,9.82983397885099E-06,-7.38152479103808E-08,1.73509532368837E-10,102.8554515167,65.4625975102,17.9385106982
-95,-100,5.235987756,0,0,0,5,0.0447201163,0.0447447721,-0.0509386548,0.0142123412,-0.0036738385,8.53201871787654E-05,-6.5968684240369E-07,1.70908814377184E-09,0.0056122603,-0.0001890867,1.81147826918567E-06,-5.23748184354475E-09,130.3554881452,36.6835122288,45.9388746091
-100,-20,3.1415926536,0,0,0,5,0.0090360131,-0.0033891694,-0.0326006466,0.0111256489,-0.0030733349,5.95917021099504E-05,-3.804989924117E-07,8.08297077733647E-10,0.0006958644,-1.73455516623826E-05,1.31454474670453E-07,-3.109222674821E-10,149.530321899,28.3958201754,12.735246444
-90,-95,5.7595865316,0,0,0,5,0.0408542701,0.02243258,-0.0523405481,0.0141359236,-0.0036882587,0.000085448,-6.498143549919E-07,1.63824083032947E-09,-0.0031966236,0.0001250675,-0.000001266,3.733760884073E-09,110.142429473,3.6182594632,116.5789653496
-95,-100,4.7123889804,0,0,0,5,0.0092894797,0.002441403,-0.0405121008,0.0137432315,-0.0038903979,9.56159346457124E-05,-7.76052032112247E-07,2.06282192244888E-09,0.004403509,-0.0001400383,1.30713353789562E-06,-3.74847819003094E-09,108.0644352147,46.7155804094,46.6611660166
-95,-20,2.0943951024,0,0,0,5,0.0288318723,-0.0073004236,0.0509127014,-0.0139853113,-0.0033165625,6.92011524664392E-05,-4.75319445989961E-07,1.07754063466192E-09,-0.0030789698,9.40556922599071E-05,-0.000000797,0.000000002,131.5056141493,14.6662172865,42.2355183894
-100,-20,2.617993878,0,0,0,5,0.0286431862,-0.0112870865,0.0435214741,-0.0129851995,-0.0032776588,6.7714634316123E-05,-4.63095611152722E-07,0.000000001,-0.0010907905,2.86015236976237E-05,-2.23721060892026E-07,5.40885847591106E-10,131.6570198852,35.5230850147,22.6131468044
-90,-95,5.235987756,0,0,0,5,0.0408941475,0.024854617,-0.0507904548,0.0141339401,-0.0038284806,9.24731083672602E-05,-7.40139785373216E-07,0.000000002,-0.0023340362,0.0001054178,-1.14888676868708E-06,3.5668899556414E-09,102.3690827435,2.0951265511,107.5849072053
-95,-100,4.1887902048,0,0,0,5,0.0446866597,0.0446391405,-0.0524533444,0.0141414331,-0.0040754855,0.0001047768,-8.94104306929565E-07,2.52748060579459E-09,0.0039344529,-0.0001619313,0.000001765,-5.65023233846754E-09,108.3374346028,54.4200353097,30.4539208732
-100,-20,2.0943951024,0,0,0,5,0.0408557881,-0.0250696382,0.0521347516,-0.0141066049,-0.0033097379,6.89269473219669E-05,-4.73726697598526E-07,1.08041126383206E-09,-0.00357081,0.0001137614,-9.8719601588773E-07,2.54435936017888E-09,137.7585259709,14.8383482503,40.4314999162
-90,-95,4.7123889804,0,0,0,5,0.0445563558,0.04413132,-0.044727547,0.014141275,-0.0039294795,9.74768935371366E-05,-8.02770014555611E-07,2.18382407010066E-09,0.005708903,-0.000195763,1.90870963714921E-06,-5.61644275326123E-09,135.4195488573,16.1170440631,42.2260109573
-90,-95,4.1887902048,0,0,0,5,0.0091600425,0.0029197515,-0.0441992209,0.013484199,-0.003950574,9.86151149552809E-05,-8.12867085635227E-07,2.20342730956975E-09,0.0029595792,-0.0001039677,1.04378642413486E-06,-3.18067230618198E-09,107.2289297651,43.2629407203,36.9679794105
-90,-95,3.6651914292,0,0,0,5,0.0280495904,0.0165168093,-0.0444502583,0.0009641316,-0.004037151,0.0001027162,-8.64688992825969E-07,2.41159389694487E-09,-7.38050809880434E-08,2.27302975747309E-09,-2.13363639545033E-11,6.25909224241369E-14,110.61692081,74.6263372896,0.008000034
-95,-100,3.1415926536,0,0,0,5,0.0446851517,0.0446531004,0.0447290291,-0.0141408521,-0.0041687775,0.0001095594,-9.51658384268086E-07,2.72886787672326E-09,-0.0034302395,0.0001510795,-1.70585625982769E-06,5.59666093556868E-09,104.9281405674,61.3872607179,26.1009809934
-100,-20,1.5707963268,0,0,0,5,0.040893979,-0.0153834589,0.0445621087,-0.0141276726,-0.0034492458,7.49131414246004E-05,-5.37935353540592E-07,1.28310574370996E-09,-0.004981891,0.0001535834,-1.34269977821397E-06,3.5392779839082E-09,134.7107710535,20.1672206811,47.2861144865
-90,-95,3.1415926536,0,0,0,5,0.0445424044,0.0443682319,0.0446976109,-0.0141351368,-0.0041400817,0.0001080565,-9.32750028223135E-07,2.66063848882252E-09,-0.0033445766,0.0001475078,-1.66206033812932E-06,5.43688403952648E-09,106.1170492738,53.893189484,25.6854245503
-95,-100,2.617993878,0,0,0,5,0.0445322691,0.0444240849,0.050902338,-0.014140892,-0.0042452353,0.000113527,-0.000001001,2.91303073090361E-09,-0.0054250025,0.0002080662,-2.22771660398559E-06,7.14344084389952E-09,103.7140976393,56.3734232137,37.0073746002
-90,-95,2.617993878,0,0,0,5,0.0270208552,0.0206719792,0.0495647046,-0.0139992343,-0.0042511164,0.0001138045,-1.00114140552538E-06,2.88760307182673E-09,-0.0048064053,0.0001783627,-1.86685019725499E-06,5.89315058548182E-09,101.157615028,51.0820780079,38.3433046435
-100,-20,1.0471975512,0,0,0,5,0.0086549502,0.0081317264,0.0472061056,-0.01401673,-0.0038303941,9.27836108570694E-05,-7.41778421962872E-07,1.90308766685759E-09,0.0020411993,-8.20045971866619E-05,8.36457031088861E-07,-2.45107658823058E-09,97.8088240147,12.9322827948,114.4749636927
-95,-20,1.5707963268,0,0,0,5,0.0446046167,-0.044721268,0.0447303725,-0.0141430017,-0.0034435755,7.46678363367208E-05,-5.35245847346032E-07,1.2754215090305E-09,-0.0050314594,0.0001551304,-0.000001357,3.57873227750507E-09,135.1159858295,14.8130113968,47.1988005593
-95,-100,2.0943951024,0,0,0,5,0.0445208896,0.0444644801,0.0524522811,-0.0141415194,-0.0047142783,0.0001400998,-1.37063474832707E-06,4.35247776696956E-09,-0.0064624213,0.0002507213,-2.76594312580206E-06,9.20912273341593E-09,87.5017463799,79.8539846,39.847068926
-90,-95,2.0943951024,0,0,0,5,0.0583385972,-0.0121878263,0.0495622466,-0.0139730917,-0.0043760533,0.0001206379,-1.08259619290935E-06,3.16707534909822E-09,-0.0027495751,5.1770655623764E-05,-1.93395730582915E-07,-2.25194986328171E-10,92.2340366547,48.6343638197,65.5748990432
-95,-20,1.0471975512,0,0,0,5,0.0207059887,0.067671255,0.0530181899,-0.0140146855,-0.0035003367,7.67634457177099E-05,-5.43670377457716E-07,1.25913681044829E-09,-0.0016267824,8.47670060473556E-06,1.51359476430307E-07,-8.19573794824147E-10,121.1721532487,11.9267174996,90.0257620313
-95,-100,1.5707963268,0,0,0,5,0.0445185523,0.0444684335,0.0447309662,-0.0141417926,-0.004880203,0.0001502619,-1.52979210062493E-06,0.000000005,0.0047679261,-0.0002052607,2.38974642600961E-06,-8.23230350030371E-09,80.8768499606,43.5238474084,100.8282404943
-90,-95,1.5707963268,0,0,0,5,0.0472057316,-0.0013712352,0.0435908382,-0.014089412,-0.0049093127,0.0001520753,-0.000001559,5.12625750472978E-09,0.0047306839,-0.0002026778,2.35723893648128E-06,-8.11831007093767E-09,82.5296057341,34.8944297143,100.857237673
-100,-20,0.5235987756,0,0,0,5,0.0447223257,0.0447292889,0.0524806479,-0.0142123381,-0.0036228034,8.31978706735001E-05,-6.43283423224318E-07,1.64744429548798E-09,0.0037003262,-0.0001321025,0.000001268,-3.59206172313919E-09,116.0610996401,1.8314617252,122.1467369847
-95,-100,1.0471975512,0,0,0,5,0.0397940564,0.0390880246,0.0507951973,-0.0141365561,-0.0045255703,0.0001270809,-1.12329297269874E-06,3.08855105090677E-09,0.0037455461,-0.000133721,1.28161601384023E-06,-3.62473256227622E-09,68.348677778,57.5690891811,122.9375586005
-90,-95,1.0471975512,0,0,0,5,0.0074684592,0.0066934744,0.0481014044,-0.0140089202,-0.0044223673,0.0001208121,-1.01184744393932E-06,2.64905204760237E-09,0.0037846987,-0.0001316286,1.24545299206489E-06,-3.49418425452547E-09,64.1401248949,54.6475312268,124.4604860921
-95,-20,0.5235987756,0,0,0,5,0.0447209449,0.0447208103,0.0524580874,-0.0142126748,-0.0036359065,8.38973007922953E-05,-6.53693504363872E-07,1.68599364019163E-09,0.0037941111,-0.000133934,1.28237508041139E-06,-3.63305288118252E-09,112.6648626719,8.1194580891912E-19,122.2607531526
-95,-100,0.5235987756,0,0,0,5,0.0408188663,0.0308090628,-0.0507627693,0.0141376323,-0.0035229173,7.71383191390272E-05,-0.000000537,1.20041667091033E-09,-0.0034218743,0.0001046012,-8.66063459978817E-07,2.12290406679301E-09,123.307540225,10.63968697,142.9551552634
-90,-95,0.5235987756,0,0,0,5,-0.0156475823,0.0355669181,0.0497056996,-0.0140197375,-0.0038978839,9.64869276216743E-05,-7.24886267800548E-07,1.68720890029035E-09,0.0026694084,-8.81238472958895E-05,7.51562274857506E-07,-1.86872404854916E-09,72.3658963503,56.0339681816,140.1903743094
-95,-20,0,0,0,0,5,0.0445615923,-0.0093494081,0.044730921,-0.01414195,-0.0037126095,8.70633210914295E-05,-6.79502910461691E-07,1.68814963274858E-09,0.0037108678,-0.0001147661,0.000000979,-2.48605760452169E-09,102.1831062444,17.0071619337,137.639137307
-95,-25,5.7595865316,0,0,0,5,0.0282875459,0.0139236344,-0.0519388228,0.0141165778,0.0032787205,-6.85541374864203E-05,4.86590425432591E-07,-1.12474110703548E-09,-0.0031344595,0.000090067,-7.41616765411275E-07,1.83031636223663E-09,108.539121227,1.9311501471,136.3413196817
-100,-25,5.7595865316,0,0,0,5,0.0438883211,0.0424903305,-0.0524355438,0.0141407411,0.0031291826,-6.14222991615825E-05,0.000000394,-8.26036473842003E-10,0.0046421935,-0.0001293857,1.02542933756869E-06,-2.45272974496682E-09,182.3473895959,5.1098209326,56.1075989924
-95,-25,5.235987756,0,0,0,5,0.0278366047,0.0175973382,-0.0501864482,0.0140886103,0.003057392,-5.88173266288171E-05,3.73053227939154E-07,-7.84660732949109E-10,0.004343088,-0.0001178124,9.08799154583187E-07,-2.11800420606465E-09,151.6996704494,17.5843153206,53.4540427486
-100,-25,5.235987756,0,0,0,5,0.0446862358,0.0446423683,-0.0509124456,0.014142048,0.0030709547,-5.93583111359062E-05,3.78918756820931E-07,-8.04012670378787E-10,0.0045575667,-0.0001246997,9.70166292498109E-07,-2.27794916629702E-09,173.8810939899,0.0106385851,52.9901241958
-95,-25,4.7123889804,0,0,0,5,0.0077821077,-0.0058773925,-0.0421254438,0.013983111,-0.0028278371,5.05266359250363E-05,-2.987262048486E-07,5.88627315654737E-10,0.0041562691,-0.0001079249,8.06411410718679E-07,-1.83275682556193E-09,154.1860543664,0.9664411418,60.0952829175
-100,100,5.7595865316,0,0,0,5,0.0262566282,-0.0234670307,-0.0518240852,0.014119612,0.0042120822,-0.0001084461,8.31232140390818E-07,-0.000000002,-0.0032348487,0.0001011501,-8.47604668723727E-07,2.09468157389099E-09,66.1343111146,69.4864025612,140.9262871298
-95,-25,4.1887902048,0,0,0,5,0.0272783817,-0.0202883685,-0.0517089821,0.0140808065,-0.0031036873,6.1035289778815E-05,-4.02744299968371E-07,8.81377045916676E-10,0.0044630914,-0.0001213656,9.43448990903904E-07,-2.22176368987189E-09,142.4482741382,1.5255023474,52.7922542891
-100,-25,4.7123889804,0,0,0,5,0.0337864854,0.0037770477,-0.0426188163,0.0140045321,-0.0029540009,5.54512138210667E-05,-3.50156048963003E-07,7.31517142518112E-10,0.00296279,-5.41565183109296E-05,2.94332450774254E-07,-4.88867959062434E-10,144.5389114652,0.9058281593,80.4868129997
-100,100,5.235987756,0,0,0,5,0.0259886932,-0.0237764802,-0.050348993,0.0141131907,0.0045579471,-0.0001289723,1.14586502465051E-06,-3.18412304629317E-09,-0.0038940421,0.000142162,-1.39708509923892E-06,4.05571098103176E-09,66.5702319042,65.4436653413,119.9736909321
-90,-100,5.7595865316,0,0,0,5,-0.0146920344,0.0086380927,-0.0503095368,0.0139898696,-0.0033705795,6.99220622639589E-05,-4.40835315197022E-07,8.6984696971446E-10,-0.0039097937,0.0001391379,-1.35277525710292E-06,3.90942493794496E-09,98.499396279,14.5388878665,120.2428776584
-100,-25,4.1887902048,0,0,0,5,0.0276472862,-0.0191102653,-0.051667484,0.0140774999,-0.0031412202,6.24326993937256E-05,-4.15233430887148E-07,9.13104113191113E-10,0.0044478691,-0.0001217137,9.51208088864058E-07,-2.25103283834109E-09,141.2873633747,7.5498479791,52.3390669175
-100,100,4.7123889804,0,0,0,5,0.0447133654,-0.0447110594,-0.0447360724,0.0141421216,0.004844596,-0.0001482636,0.000001503,-4.92096063115811E-09,-0.0047344677,0.00020663,-2.4318179249415E-06,8.45933987675094E-09,82.1085907917,47.1493529287,99.7554778387
-100,-25,3.6651914292,0,0,0,5,0.0283372537,-0.0152937572,-0.0493198997,0.0139694547,-0.0032709711,6.76626354509098E-05,-4.67695382198306E-07,1.0680282755269E-09,0.0032424307,-9.38954306876697E-05,7.68949897519069E-07,-1.90263758181875E-09,127.4452986736,19.3946719429,44.8572827955
-95,-25,3.6651914292,0,0,0,5,0.0447181621,-0.0439944563,-0.0509185201,0.0141421776,-0.0032652319,6.74207830986148E-05,-4.6577245164605E-07,1.06698710042443E-09,0.0039068118,-0.0001201526,1.01785832864671E-06,-2.56888735719399E-09,115.9475598379,28.7049056144,42.0112005803
-90,-100,5.235987756,0,0,0,5,0.0408193603,0.0306005902,-0.050769613,0.0141311252,-0.0038523216,9.36293611929509E-05,-7.54885927444923E-07,0.000000002,0.0056173797,-0.0001898288,1.82435023242937E-06,-5.29242313864814E-09,159.9703264473,0.386723558,47.0299824607
-100,100,4.1887902048,0,0,0,5,0.044713457,-0.044710679,-0.052457807,0.0141421105,0.0046266559,-0.0001349962,1.29792885325987E-06,-4.06375816686507E-09,0.0064124508,-0.0002468506,2.70205092705058E-06,-8.92627782787595E-09,89.528085722,81.7296763438,39.9877621998
-90,-100,4.7123889804,0,0,0,5,0.0446877104,0.0446225329,-0.0447343892,0.014141945,-0.0040285611,0.0001024623,-8.67080533242582E-07,2.43062196284643E-09,0.0057791135,-0.0002063243,0.000002088,-6.36853435914611E-09,129.4735739798,24.8848728497,40.5810459773
-90,-100,4.1887902048,0,0,0,5,0.0446863764,0.0446426568,-0.0524530992,0.0141413795,-0.0041057327,0.0001063453,-0.000000914,2.60091511617507E-09,0.0039283828,-0.0001629689,0.000001788,-5.75826129411548E-09,107.138079671,51.4115710697,30.0386255347
-100,100,3.6651914292,0,0,0,5,0.0446840092,-0.0446594974,-0.0509113187,0.0141418786,0.0042106384,-0.0001116938,9.77458402732406E-07,-2.82454842042291E-09,0.0053012245,-0.0002030709,2.16582503797354E-06,-6.91073440598435E-09,104.7196045592,59.8317134631,36.8427310597
-100,-25,2.617993878,0,0,0,5,0.0287955505,-0.0088499061,0.0455198738,-0.0134318588,-0.0033263185,0.000069736,-4.83392929746372E-07,1.10412239089125E-09,-0.00120803,3.42906295828834E-05,-2.81453913064109E-07,7.04004436264607E-10,128.7000138676,34.3343349199,25.6208654711
-95,-25,2.617993878,0,0,0,5,0.0408237624,-0.0290441577,0.0493970312,-0.0138808703,-0.0033006857,6.86622341936211E-05,-4.73458390179404E-07,1.0827579153225E-09,-0.0014886589,4.54357247508446E-05,-3.86069417552866E-07,0.000000001,134.6519523467,23.5262296816,25.4547381673
-100,100,3.1415926536,0,0,0,5,0.0446855251,-0.0446504066,-0.0447285132,0.0141407256,0.0041368205,-0.0001078869,9.3036973361708E-07,-2.65038219726215E-09,0.0033478149,-0.0001477479,1.66418809521924E-06,-5.43914269318045E-09,106.0469811851,65.170204913,25.6658202193
-100,-25,2.0943951024,0,0,0,5,0.0408822901,-0.0183400465,0.0521589381,-0.0141101014,-0.0033506113,7.06113613463332E-05,-4.90425247885723E-07,1.12998940649807E-09,-0.0038203652,0.0001213375,-1.05823610312411E-06,2.74895523072046E-09,136.5114995124,14.5434640161,41.2858474509
-95,-25,2.0943951024,0,0,0,5,0.0439239037,-0.0370908027,0.0523972009,-0.0141355143,-0.0033421228,7.0235484062447E-05,-4.86392503135416E-07,1.11864013403226E-09,-0.0039116262,0.0001248238,-1.09247134176196E-06,2.84417325378504E-09,139.3688474781,7.0266823072,40.9235578998
-100,-25,1.5707963268,0,0,0,5,0.0408955056,0.0044698514,0.0445768003,-0.0141286203,-0.0035052851,7.73428302204251E-05,-5.63700123973425E-07,1.36286951968168E-09,-0.0051530048,0.0001598761,-1.41090669043529E-06,3.75900679654085E-09,134.0930002089,20.359986084,47.424972283
-90,-100,3.1415926536,0,0,0,5,0.0403703657,0.037282288,0.0439591958,-0.0140177124,-0.0042111511,0.0001117894,-9.7959141154999E-07,2.82759196717839E-09,-0.0029775438,0.0001214157,-1.32326267717039E-06,4.26583397059612E-09,102.924129539,56.6488423837,28.493717528
-95,-25,1.5707963268,0,0,0,5,0.0284853259,0.0040073196,0.0441423459,-0.0141092662,-0.0037751411,9.01793137655446E-05,-7.15481897339687E-07,1.83554336579062E-09,0.001904734,-7.25999051209708E-05,7.38133873190968E-07,-2.1669051503469E-09,92.1751512252,0.5910429564,109.3573640564
-100,100,2.0943951024,0,0,0,5,0.0091081713,-0.0031043637,0.0438599089,-0.013445716,0.0039641564,-9.9256157940949E-05,8.19818668133916E-07,-2.22445031132036E-09,-0.002862019,0.0001000708,-1.00193461595686E-06,0.000000003,106.9392965033,54.6751424264,36.977428383
-100,-25,1.0471975512,0,0,0,5,0.0446892965,0.0444044959,0.0509127211,-0.0141420848,-0.0040005933,0.000102099,-8.85105694025061E-07,2.4495412249289E-09,0.0040483576,-0.0001290456,1.19554190859261E-06,-3.34352510835241E-09,90.3371411254,10.0037177365,122.0183534908
-90,-100,2.617993878,0,0,0,5,0.0437676557,0.0433131922,0.0508578155,-0.0141359652,-0.0043019244,0.000116559,-1.04506310306049E-06,3.1097566675608E-09,-0.0058240304,0.0002276527,-2.4996885044702E-06,8.24175220583854E-09,105.7280221551,50.2219428973,36.7113315622
-90,-100,2.0943951024,0,0,0,5,-0.0032981697,-0.0180488514,0.0499071191,-0.0139430339,-0.0045011811,0.0001275543,-1.17509004310504E-06,3.51583852288156E-09,-0.0017452566,1.23871349723118E-05,2.41292182161855E-07,-1.67661732458642E-09,89.0256988475,49.095643232,72.4245309371
-95,-25,1.0471975512,0,0,0,5,0.0340760718,0.0158568618,0.0505337847,-0.0141226622,-0.0038122894,9.27632968202826E-05,-7.67240519678684E-07,2.05922123673784E-09,0.0038151967,-0.0001251271,1.17542447281114E-06,-3.31429886977159E-09,92.3264950231,4.4112130059,120.8687293872
-100,100,1.5707963268,0,0,0,5,0.0446880795,-0.0446103932,0.0447344928,-0.0141419627,0.0039719689,-9.96273032138785E-05,8.28915898001459E-07,-2.27145609896925E-09,-0.0054790148,0.0001904796,-1.87162477324413E-06,5.53582364888103E-09,107.3892654071,55.738942224,41.7015667261
-90,-100,1.5707963268,0,0,0,5,0.0436914767,0.0435136046,0.044709876,-0.0141404652,-0.0049465969,0.0001540276,-0.000001582,5.18792153091792E-09,0.0047774937,-0.0002028637,2.33645350979059E-06,-0.000000008,79.0388857545,40.5852654034,101.9085414401
-100,100,1.0471975512,0,0,0,5,0.043920478,-0.041040661,0.0508852114,-0.0141399918,0.003778539,-8.9775105720904E-05,0.000000702,-1.80048194668056E-09,-0.0055891616,0.000187593,-1.79036687057218E-06,5.15695771725848E-09,169.6154547356,0.1199943197,47.550676172
-100,-25,0.5235987756,0,0,0,5,0.0446682759,0.0447213715,0.052473921,-0.0142119956,-0.0037476022,8.9114538359307E-05,-7.15237125668294E-07,1.90040206676711E-09,0.0040417733,-0.0001466007,1.44184402449288E-06,-4.19883964065649E-09,105.5590757786,13.9068291132,119.4920424131
-90,-100,1.0471975512,0,0,0,5,0.0072571819,0.0069640363,0.0481209778,-0.014010259,-0.0044669271,0.0001229293,-1.02958307796558E-06,2.68680351024314E-09,0.0037301395,-0.0001296574,1.22181494889754E-06,-3.4103774004792E-09,63.1923073226,58.4997251693,125.1149014081
-95,-25,0.5235987756,0,0,0,5,0.0444832408,0.0445614296,0.0524935664,-0.0142125324,-0.0037639927,9.00042360304379E-05,-7.28621783643548E-07,0.000000002,0.0041351127,-0.0001487989,1.46186250190034E-06,-4.26162312021466E-09,107.5963351698,6.7219422158,119.503177764
-100,100,0.5235987756,0,0,0,5,0.0439137718,-0.0399304664,0.0524342829,-0.0141408705,0.0037050008,-8.62682763123821E-05,6.60788961742302E-07,-1.68056096376084E-09,0.0032658682,-0.0001274321,0.000001294,-3.83490737689842E-09,114.1648958972,10.5136484942,115.9521328958
-90,-100,0.5235987756,0,0,0,5,0.043905541,0.041533423,-0.0508833166,0.0141412327,-0.0035557253,7.86110808877069E-05,-5.52099773255184E-07,1.2434631481438E-09,-0.0034177935,0.0001047889,-8.69595517231256E-07,2.13589242047876E-09,122.0140817225,7.2108098347,142.669890255
-95,-25,0,0,0,0,5,0.0439263517,0.0311869603,0.0447088215,-0.0141412114,-0.0036701427,8.4929576413279E-05,-0.000000651,1.59107714260465E-09,0.0035330653,-0.0001106442,9.42722290914097E-07,-2.38067787890035E-09,104.9697456716,14.2054765252,138.3017455275
-100,100,0,0,0,0,5,0.0069738316,-0.0001116605,0.0419366931,-0.0140088023,0.0031947537,-6.29564510218801E-05,3.80459285557403E-07,-7.29789720666784E-10,0.0040157184,-0.0001378101,1.29420275094612E-06,-3.61413403063211E-09,108.8301625994,27.2739829757,125.9324352914
-95,-30,5.7595865316,0,0,0,5,0.0032819588,-0.0083130717,-0.0500683569,0.014041128,0.0030981096,-6.01518076870079E-05,3.77887934855542E-07,-7.73930547643056E-10,0.0003909617,1.7744583377862E-05,-0.000000272,8.52318909086332E-10,143.0249202845,0.9379293561,110.7994721307
-100,95,5.7595865316,0,0,0,5,0.0079584584,-0.0064234938,-0.0494187602,0.0140289251,0.0042116664,-0.0001086903,8.35909986337222E-07,-0.000000002,-0.0033260765,0.0001052128,-8.96158950907822E-07,2.25616283615752E-09,65.4835821394,68.8202475763,138.9493322344
-95,-30,5.235987756,0,0,0,5,0.0445407515,0.044376287,-0.050907477,0.0141416726,0.0029983547,-5.66234949262202E-05,3.53248037708771E-07,-7.34518475161505E-10,0.0044953552,-0.0001213595,9.31577684347577E-07,-2.15812730434917E-09,171.5590892611,0.0620732825,53.0558039076
-100,95,5.235987756,0,0,0,5,0.0078075049,-0.0063894944,-0.0481804234,0.0140012456,0.0044394775,-0.0001223525,1.04806444269368E-06,-2.82438133343143E-09,-0.00385706,0.0001400702,-1.37541726684708E-06,0.000000004,65.805152902,63.7597390737,120.2640621744
-100,-30,5.7595865316,0,0,0,5,0.0281705426,0.0164649365,-0.0518925038,0.0141071868,0.0030978078,-6.02508592713527E-05,3.83610368188481E-07,-7.99590811951707E-10,0.0045489575,-0.0001249012,9.76558731212445E-07,-2.30722339576925E-09,180.4342543606,8.7834890476,56.5782386279
-95,-30,4.7123889804,0,0,0,5,0.0080598153,-0.0054654212,-0.0420905664,0.0139764546,-0.0028779975,5.23471807788372E-05,-3.15181696166951E-07,6.31969776429111E-10,0.0041897236,-0.0001099339,8.30752450795198E-07,-1.91039778807881E-09,152.0500892437,0.9726854209,59.2797039462
-100,-30,5.235987756,0,0,0,5,0.027693999,0.0182988047,-0.0501753438,0.0140877661,0.0030379113,-0.000058095,3.66632178092546E-07,-7.67796866180143E-10,0.004267576,-0.000115588,8.88826647292536E-07,-2.06352687038046E-09,151.990859667,24.0766168354,53.3950183814
-100,95,4.7123889804,0,0,0,5,0.0446820479,-0.0446675576,-0.0447352241,0.0141420654,0.0046751186,-0.0001382642,1.35864161006761E-06,-4.3477014794296E-09,-0.0045458662,0.0001989692,-2.33422893404624E-06,8.07642955979436E-09,86.5808760963,39.5112508486,100.0718630278
-95,-30,4.1887902048,0,0,0,5,0.0084809257,-0.0047572354,-0.0487828058,0.0138703746,-0.0030811244,6.01678224974022E-05,-3.92243476794629E-07,8.44422425790968E-10,0.0038882677,-0.0001021086,7.8172025824594E-07,-1.83227982682886E-09,135.9485252069,4.5457573118,55.2962617336
-100,95,4.1887902048,0,0,0,5,0.0401598071,-0.0382247994,-0.0523051997,0.0141262078,0.0045074919,-0.0001281818,1.20274503392301E-06,-3.68999860572385E-09,0.0063197198,-0.0002401207,2.59667745404424E-06,-8.48138241268663E-09,93.8391747385,74.2402450803,40.3513762916
-95,-30,3.6651914292,0,0,0,5,0.0439006595,-0.0420006096,-0.0508364835,0.0141326073,-0.0033032676,6.89781063800625E-05,-4.81480472865365E-07,1.11440884713912E-09,0.0036044018,-0.0001152951,1.00065808939374E-06,-2.57342056409898E-09,130.1266633102,15.0007922989,39.8682532635
-100,-30,4.7123889804,0,0,0,5,0.0082666574,-0.0051888704,-0.0420726921,0.0139721851,-0.0029215135,5.3972864166948E-05,-3.3058056871015E-07,6.7423750361585E-10,0.004197203,-0.0001105602,8.3926086793996E-07,-1.93930328671279E-09,156.7077281614,0.9961578367,58.822095737
-100,95,3.6651914292,0,0,0,5,0.0447140462,-0.0447081553,-0.050913148,0.014142081,0.0041517883,-0.00010859,9.37794133446455E-07,-2.67820041303772E-09,0.0051506745,-0.0001967173,2.08520610156999E-06,-6.60442594877043E-09,106.9826323311,55.3678249104,36.606865276
-100,-30,4.1887902048,0,0,0,5,0.0086275239,-0.0044588616,-0.048658821,0.0138566727,-0.0031205182,6.17396268942039E-05,-4.07935860064671E-07,8.91763806453264E-10,0.0039176954,-0.0001051139,8.22357348357241E-07,-0.000000002,134.7360346075,11.2570548856,54.256453331
-100,95,3.1415926536,0,0,0,5,0.0446861856,-0.0446444541,-0.0447272998,0.0141404158,0.0040785066,-0.0001048652,8.9249899763666E-07,-2.51334755319106E-09,0.0031984658,-0.0001419493,1.59392707122013E-06,-5.17949910744565E-09,108.3870756653,61.6462689875,24.7281461083
-100,-30,3.6651914292,0,0,0,5,0.0285486047,-0.0131935326,-0.049165062,0.013950211,-0.003307761,6.91428942532371E-05,-0.000000482,1.1096947155141E-09,0.0030682082,-9.056846885252E-05,7.53209148029757E-07,-1.88986109835105E-09,126.4403515174,20.2862226203,43.3982527424
-95,-30,2.617993878,0,0,0,5,0.0447213643,0.0447213605,0.0509136301,-0.0141422366,0.0026306137,-4.42253305517448E-05,2.56375897648177E-07,-5.31830317016923E-10,-0.0006566743,5.21073605268457E-05,-5.90878263965834E-07,1.74659082215165E-09,189.287174598,0,33.508
-100,95,2.0943951024,0,0,0,5,0.0445521822,-0.04424182,0.0524377674,-0.0141392888,0.0039951209,-0.0001006847,8.43451470108757E-07,-2.34477049866115E-09,-0.0040267681,0.0001611211,-1.72044831800852E-06,5.4099374829107E-09,111.5407879418,52.6632480572,31.9616196652
-100,-30,2.617993878,0,0,0,5,0.028884341,-0.0065438987,0.046122339,-0.0134955727,-0.003366527,7.14082289754526E-05,-5.00146943601366E-07,1.15388889628493E-09,-0.0013359968,3.84985177713854E-05,-3.19706830371562E-07,8.08205663645255E-10,127.4832651231,30.1710131581,30.1145201644
-95,100,5.7595865316,0,0,0,5,0.0447213603,-0.0447213599,-0.0524580414,0.014142408,0.0046259916,-0.0001284681,1.01445905712593E-06,-2.41763749810909E-09,0.0011997457,-5.28707608948054E-05,5.10835318118033E-07,-1.36767336247093E-09,51.7059659224,0,208.9652836652
-100,95,1.5707963268,0,0,0,5,0.0447147867,-0.0446952265,0.0447359379,-0.0141421033,0.0039144884,-9.67848780933891E-05,7.94871456046611E-07,-2.15307190434923E-09,-0.0055180691,0.0001889741,-1.83353327576866E-06,5.36061925382712E-09,109.3230074997,51.7394897723,42.5307913872
-95,-30,2.0943951024,0,0,0,5,0.0039559928,-0.0056824176,0.0478305568,-0.013587601,-0.0034088821,7.27843719294667E-05,-5.02328717796171E-07,1.13116181773876E-09,-0.0021264399,5.48445713680621E-05,-4.2823667986131E-07,0.000000001,103.5726462727,31.3466014835,54.1296936868
-95,100,5.235987756,0,0,0,5,0.0397940564,-0.0390880245,-0.0507951973,0.0141365561,0.0045255703,-0.0001270809,1.12329297266966E-06,-3.08855105077439E-09,-0.0037455461,0.000133721,-1.28161601328248E-06,3.62473256099121E-09,68.3486777848,57.5690891868,122.9375585885
-100,95,1.0471975512,0,0,0,5,0.0289281599,-0.0074246474,0.0502282366,-0.0140925406,0.0037584897,-8.90691134976942E-05,0.000000699,-1.80852831684747E-09,-0.0054218431,0.0001787885,-0.000001679,4.76578631605262E-09,166.4821442211,1.7606965528,48.5816609931
-95,-30,1.5707963268,0,0,0,5,0.0289597298,0.003710898,0.0439796945,-0.0140797691,-0.0035742052,8.03927618667357E-05,-5.95358373080438E-07,1.45508760877587E-09,-0.0050913745,0.0001586272,-1.40981821245302E-06,3.79147938319551E-09,138.2170077333,11.120704214,47.904485046
-100,-30,2.0943951024,0,0,0,5,0.0408931059,-0.0107282187,0.0521732907,-0.0141121695,-0.0034573993,7.5266544599223E-05,-5.41840481887381E-07,1.29462047668685E-09,-0.0039425456,0.000129619,-1.16885327010786E-06,3.13766653077155E-09,131.6966493421,19.4095628314,40.6621323104
-95,100,4.7123889804,0,0,0,5,0.0446807227,-0.04467065,-0.0447352167,0.014142067,0.0048784069,-0.0001501559,1.52826154259395E-06,-0.000000005,-0.0047677375,0.0002052752,-0.00000239,8.23326694950148E-09,80.9262106556,43.4743418647,100.827193084
-100,-30,1.5707963268,0,0,0,5,0.0285631319,0.0057901946,0.0441098798,-0.0141038489,-0.0038504542,9.44842255927338E-05,-7.8419747344116E-07,2.09607468105721E-09,0.0030109493,-9.85624981581033E-05,9.35433725447713E-07,-2.65628671653009E-09,89.2982303594,1.5415342185,115.435422819
-100,95,0.5235987756,0,0,0,5,0.0442042921,-0.044464224,0.0524572734,-0.0141450415,0.0036605949,-8.42687012620366E-05,6.3663315684338E-07,-1.58796871701887E-09,0.0029912069,-0.0001160846,1.1533174951822E-06,-3.32771207093402E-09,110.1358917873,12.2331984668,118.8564210986
-95,-30,1.0471975512,0,0,0,5,0.0447213568,0.0447213565,0.0509136304,-0.0142126704,-0.0041136645,0.0001082158,-0.000000972,2.79278740105776E-09,0.0044299208,-0.000144897,1.38218249706769E-06,-0.000000004,88.4603103347,9.295724911,119.1741679634
-95,100,4.1887902048,0,0,0,5,0.0437281416,-0.043453039,-0.0524292701,0.0141390574,0.0047128848,-0.000140016,1.3693012376279E-06,-4.34638825832016E-09,0.0064581872,-0.0002504366,2.76176334385459E-06,-9.19254631760009E-09,88.0001871301,79.3420120035,39.8686726969
-100,95,0,0,0,0,5,0.0289732732,-0.0057883853,0.0441146547,-0.0141155197,0.0035070337,-7.70673466664131E-05,5.51252092597991E-07,-1.310235201613E-09,0.0039718239,-0.0001369927,1.28578891789957E-06,-3.57878142314412E-09,130.594891553,2.7809939037,125.9934652867
-95,-30,0.5235987756,0,0,0,5,0.0445618711,0.043402372,0.05245321,-0.0141419171,-0.0040964667,0.0001065373,-9.32293698589136E-07,2.59539767807321E-09,0.0044317895,-0.0001457291,1.35742682549614E-06,-3.79714970693584E-09,90.3104677973,20.5977095832,124.9019527278
-100,-30,1.0471975512,0,0,0,5,0.0445285399,0.0438651433,0.0509163647,-0.0141746809,-0.003756218,0.000089593,-7.22135202354605E-07,1.92437699621048E-09,0.003722078,-0.0001334917,1.31817440025008E-06,-3.86102770352677E-09,102.4482009661,3.229949993,116.4651614308
-95,100,3.6651914292,0,0,0,5,0.044683477,-0.0446617472,-0.050911371,0.0141418868,0.0042449264,-0.0001135103,1.00081597445837E-06,-2.91241010135362E-09,0.005427391,-0.0002081585,2.22877566463466E-06,-7.14709745870859E-09,103.7457466809,56.3403937913,37.0075671844
-100,90,5.7595865316,0,0,0,5,0.0081367156,-0.0060968505,-0.0493926995,0.0140284541,0.004172612,-0.000106782,8.20154938140707E-07,-0.000000002,-0.003375853,0.0001069123,-9.14098201767941E-07,2.31192335792506E-09,66.5636844765,65.1013569063,138.290319344
-95,-30,0,0,0,0,5,0.0445611566,0.0432692305,0.0447307403,-0.0141419563,-0.0036144549,8.22763960851839E-05,-6.16290980529189E-07,1.466947790435E-09,0.0032837934,-0.0001021653,8.5391190617029E-07,-2.1066706443948E-09,107.4418722119,10.9007135443,141.2325081708
-95,100,3.1415926536,0,0,0,5,0.0395248078,-0.0356018706,-0.0440252057,0.01403793,0.0041670138,-0.0001094467,9.49473259029486E-07,-2.71765309335326E-09,0.0027770794,-0.0001097667,1.17220433357914E-06,-3.72218743888083E-09,102.3474240428,61.2525378014,28.8920079249
-100,90,5.235987756,0,0,0,5,0.0401016367,-0.0386328396,-0.0507979928,0.014136156,0.0045239254,-0.0001282477,1.17239085249211E-06,-3.3615740102994E-09,-0.0039755238,0.0001468835,-1.46192096460508E-06,4.2991371135205E-09,73.2379154725,53.3197534536,118.3530661494
-95,-35,5.7595865316,0,0,0,5,-0.0050568365,0.0022787478,-0.0482183348,0.0140311681,0.0030759229,-5.92535856675432E-05,3.68892620771119E-07,-7.4398344537591E-10,-0.0002812383,3.1872633585859E-05,-3.58693312495736E-07,0.000000001,130.2578928814,7.5512926104,118.0848709616
-100,-30,0.5235987756,0,0,0,5,0.0447204222,0.0447215453,0.0524580934,-0.0142126691,-0.0037787205,9.05767177943273E-05,-7.30295696698521E-07,1.94216115123294E-09,0.0040522349,-0.0001466705,1.4376811220061E-06,-4.17188322679344E-09,102.0846253867,17.5030476635,120.0799601663
-95,-35,5.235987756,0,0,0,5,0.0342569475,-0.0382294629,-0.0507945214,0.014137365,-0.0026137172,4.20897720065437E-05,-2.09307652795626E-07,3.46839342743508E-10,-0.0010838094,5.37531175374151E-05,-0.000000516,1.34673573573772E-09,110.1424692814,0.0109467509,128.9954370114
-100,90,4.7123889804,0,0,0,5,0.0509395438,-0.0403709696,-0.0444962261,0.0141831343,0.0041543363,-0.0001076185,8.88700905613837E-07,-2.34006401907309E-09,0.0064389431,-0.0002489023,2.73583981719866E-06,-9.07547332104139E-09,136.3713940121,42.7417656226,42.4879076003
-95,100,2.0943951024,0,0,0,5,0.0446866597,-0.0446391405,0.0524533444,-0.0141414331,0.0040754855,-0.0001047768,8.94104307040145E-07,-2.52748060617922E-09,-0.0039344529,0.0001619313,-0.000001765,5.65023233888916E-09,108.3374346318,54.4200352774,30.4539208764
-95,-35,4.7123889804,0,0,0,5,0.027357664,-0.0195849718,-0.044156109,0.0141034473,-0.0029863932,0.000056427,-3.55406840398963E-07,7.50221418014728E-10,0.004534389,-0.0001242114,9.69339145706038E-07,-2.28660953988207E-09,151.1385125569,0.8582900161,56.0410326636
-100,90,4.1887902048,0,0,0,5,0.0445340345,-0.044418542,-0.0524515414,0.0141414927,0.0043594559,-0.0001198259,1.08512838206427E-06,-3.2156168681751E-09,0.0061393595,-0.0002262827,2.37155738434471E-06,-7.50131366268876E-09,96.886365836,67.7512417312,41.2216898134
-95,-35,4.1887902048,0,0,0,5,0.00874187,-0.0041831724,-0.0485752675,0.0138444812,-0.0031539632,6.30995956744651E-05,-4.22096859053487E-07,9.34180606904286E-10,0.003940336,-0.0001062447,8.37117461425762E-07,-0.000000002,132.084953292,7.6902280879,53.7844976316
-95,100,1.5707963268,0,0,0,5,0.0447194431,-0.0447121838,0.0447360753,-0.0141421247,0.0040073388,-0.0001014077,8.54401041232608E-07,-2.38475863547603E-09,-0.0056247203,0.0002010988,-2.03168798531187E-06,6.17819056970087E-09,107.8007845436,51.3319175351,40.637372321
-100,90,3.6651914292,0,0,0,5,0.0446855511,-0.0446503076,-0.0509111042,0.0141418437,0.0040920334,-0.0001054797,8.98550838469873E-07,-2.53498559291922E-09,0.0049960302,-0.0001902531,2.00388955565782E-06,-6.29813674749588E-09,109.4685278031,50.8887967506,36.3356357516
-95,-35,3.6651914292,0,0,0,5,0.0408235285,-0.0303385502,-0.0504878243,0.0140885417,-0.0033419459,7.055351803335E-05,-4.9681036065542E-07,1.15935494780531E-09,0.003298092,-0.0001061917,9.27344654038551E-07,-2.40388233089059E-09,127.7673472466,16.9845472827,38.9742575908
-100,90,3.1415926536,0,0,0,5,0.0447144441,-0.0447044687,-0.0447341494,0.0141417005,0.0040198836,-0.0001018669,8.55396544905997E-07,-2.38056522772342E-09,0.0030502047,-0.0001362958,1.52630831922656E-06,-4.93191572814374E-09,110.9629578522,58.2168362533,23.6451073875
-95,100,1.0471975512,0,0,0,5,0.0408371456,-0.0300715564,0.050770619,-0.0141312804,0.0038108776,-9.1468760263622E-05,7.25436806760035E-07,-1.89396577684037E-09,-0.0055948835,0.0001883119,-1.80251364361208E-06,5.20807019613186E-09,164.6281594036,0.445330634,47.2795443511
-100,-35,5.7595865316,0,0,0,5,0.0279461963,0.0175407521,-0.0518907301,0.0141065493,0.0030737204,-5.93571802004082E-05,0.000000376,-7.81657800449271E-10,0.0045072718,-0.0001226351,9.50265802202835E-07,-2.22520161400389E-09,179.6536786137,11.5793830778,56.6680606759
-95,100,0.5235987756,0,0,0,5,0.0288106529,-0.0069468797,0.0518738807,-0.0141105942,0.00370575,-8.62346549457038E-05,6.57610320085033E-07,-1.65788363457974E-09,0.0033220654,-0.0001287797,0.000001306,-3.87155152041757E-09,114.9863260773,4.8122797697,115.9984874828
-100,-35,5.235987756,0,0,0,5,0.0226340882,-0.0207552018,-0.0503621212,0.0141171968,-0.0028143478,0.000048774,-2.58764437825136E-07,4.39659694333749E-10,-0.002132154,7.5719308870796E-05,-6.58551685451047E-07,1.64170395540295E-09,106.2706984771,0.0761197296,135.1920385973
-95,100,0,0,0,0,5,0.0439106075,-0.0406719497,0.0447107187,-0.0141410443,0.0035892557,-8.06833355115295E-05,5.90757688283379E-07,-1.43632017304672E-09,0.0039723112,-0.0001394684,0.000001328,-3.74565088159278E-09,128.886526466,1.3466525031,124.2142951995
-100,90,2.0943951024,0,0,0,5,0.0447146896,-0.0446989265,0.0524573176,-0.0141420391,0.0039185187,-9.6885318004025E-05,7.94383148342554E-07,-2.15272430575688E-09,-0.0040327952,0.0001544645,-1.58881448964977E-06,4.82320737553661E-09,111.2226657393,49.8686354049,33.7418258673
-100,-35,4.7123889804,0,0,0,5,0.027579327,-0.0188621277,-0.0441509497,0.0141024398,-0.0030254212,5.78998810438781E-05,-3.69337907058022E-07,7.88020809074054E-10,0.0045519243,-0.0001252027,9.81201216833807E-07,-2.32456561267873E-09,155.8815952551,0.9252130977,55.5947877442
-95,95,5.7595865316,0,0,0,5,0.004936794,0.0196389057,-0.0495458413,0.0139684474,0.0040968748,-0.0001033007,7.79906661569587E-07,-1.81791732868191E-09,-0.003172205,9.88956759270616E-05,-8.25667550466238E-07,0.000000002,68.0437107122,60.6541898813,141.8181482137
-95,-35,2.617993878,0,0,0,5,0.0095514959,-0.0008127612,0.0364652074,-0.0125629828,-0.0034936381,7.70947893340427E-05,-5.61936547201239E-07,1.33751063155119E-09,-0.0009692383,2.77862870758167E-05,-2.33484049026779E-07,6.01663862134225E-10,118.3280138397,33.7062037476,30.4812048317
-100,90,1.5707963268,0,0,0,5,0.0447200595,-0.044714937,0.0447362146,-0.0141421296,0.0038555401,-9.39080540730439E-05,7.60830364493385E-07,-0.000000002,-0.0055515593,0.00018724,-1.79327210090387E-06,5.18039276192045E-09,110.9240652192,48.2885926872,43.3802179123
-95,-35,2.0943951024,0,0,0,5,0.0408960303,0.0033357069,0.052191203,-0.0141146869,-0.0035016873,7.71629420853398E-05,-5.61386680788933E-07,1.35558549352762E-09,-0.0042324448,0.0001386611,-1.25706246336413E-06,3.40352318404205E-09,130.8020462365,14.3933958177,41.4035608705
-95,95,5.235987756,0,0,0,5,0.0260158577,-0.0235183398,-0.0503321151,0.0141132375,0.0045041925,-0.0001262624,1.11828720241196E-06,-3.10511996228605E-09,-0.0039406277,0.0001430946,-1.40264385984957E-06,4.06523115834534E-09,67.9832512729,56.60847412,120.2247134769
-100,90,1.0471975512,0,0,0,5,0.339315012,-0.2498679115,0.0634652296,-0.0140109504,0.0036788749,-8.58046468742897E-05,6.68844511678493E-07,-1.71361545297596E-09,-0.0022515966,0.000029371,-0.000000022,-4.208588395539E-10,109.3664466201,34.8822911523,80.7101850859
-95,-35,1.5707963268,0,0,0,5,0.0101324102,0.0145049027,0.0424189156,-0.014108976,-0.0036393914,8.33312787186732E-05,-0.000000627,1.55248506901964E-09,-0.0051534845,0.0001623841,-1.46054840636932E-06,0.000000004,139.0296526729,10.7367508357,47.9205423346
-95,95,4.7123889804,0,0,0,5,0.0447133792,-0.0447109044,-0.0447360678,0.0141421216,0.0047614148,-0.0001434322,1.43591063031857E-06,-4.66635525532237E-09,-0.0047481605,0.0002070225,-2.43531752109688E-06,8.46926482124891E-09,84.0699567476,38.0437763331,99.8104425611
-100,90,0.5235987756,0,0,0,5,-0.0031878133,-0.0081384955,0.0507441775,-0.0140014954,0.0033881428,-7.17937181584303E-05,4.89141141140965E-07,-1.10265614130276E-09,0.0034950694,-0.0001211613,1.14335497122663E-06,-3.19482912306363E-09,114.6473063059,4.2413523696,123.7698996492
-95,-35,1.0471975512,0,0,0,5,0.0439187651,0.0407333495,0.0508901905,-0.0141408341,-0.0041918971,0.0001121747,-1.02106114216619E-06,0.000000003,0.0045131857,-0.0001507797,1.45935917346477E-06,-4.26646030437911E-09,86.0651344912,13.3662778278,118.0280171397
-100,90,0,0,0,0,5,0.0095728259,-0.0005933299,0.0417813923,-0.014014867,0.0033573158,-0.000070539,4.76207846246579E-07,-1.05638079736671E-09,0.0039052289,-0.0001318892,1.21877830630544E-06,-3.34706559342297E-09,127.6939015886,4.6486038896,128.1587758422
-100,-35,4.1887902048,0,0,0,5,0.0447437865,-0.0447211702,-0.0524846344,0.0142124937,-0.0032853711,0.000068303,-0.000000476,1.09963886879626E-09,0.0046848121,-0.0001370917,1.13578726068851E-06,-2.83459694458499E-09,129.4380598127,18.6324620089,48.4609399797
-95,-35,0.5235987756,0,0,0,5,0.044560071,0.043789783,0.0524531555,-0.0141419205,-0.0040869177,0.0001057535,-9.16152106015684E-07,2.52057544927605E-09,0.0042831346,-0.0001412097,1.30779947118778E-06,-3.62714385563989E-09,90.9597901688,20.0667646726,125.9242696272
-95,95,4.1887902048,0,0,0,5,0.0437526769,-0.0433844215,-0.052428062,0.0141389875,0.0045909522,-0.0001329661,1.27019731086411E-06,-0.000000004,0.00639839,-0.0002458221,2.68576697155854E-06,-8.85670686678012E-09,91.2872194567,72.8796056565,40.0591125219
-100,85,5.7595865316,0,0,0,5,0.0270795447,-0.0215481259,-0.0518234108,0.0141186774,0.0041633922,-0.000106519,8.36373718393155E-07,-0.000000002,-0.0034421819,0.000110261,-9.51879142864497E-07,2.42830338347584E-09,69.636089329,59.2929773487,136.7202405598
-95,95,3.6651914292,0,0,0,5,0.137091306,0.0333092366,-0.0420503895,0.0160831353,0.0041578925,-0.0001084326,9.15517179526006E-07,-2.51038198962331E-09,0.0036290617,-0.0001238144,1.23122541522816E-06,-3.75424076305027E-09,85.5712259589,69.2316618933,40.7643682608
-100,-35,3.6651914292,0,0,0,5,0.017269499,-0.0389078688,-0.0499118065,0.0141781441,-0.0029792307,5.57576498583698E-05,-3.42387417750614E-07,7.17423227196186E-10,0.000542384,-4.90772540114806E-05,5.66745253971614E-07,-1.68692378303134E-09,144.1231829117,36.4690962241,10.7572154507
-100,85,5.235987756,0,0,0,5,0.0437756289,-0.043361132,-0.0508902347,0.0141409193,0.004504426,-0.0001275457,1.17570553135581E-06,-3.40676942840502E-09,-0.0040156739,0.0001493141,-1.49624140369266E-06,4.43074401014651E-09,77.9561980198,46.1835902261,117.4965748383
-95,95,3.1415926536,0,0,0,5,0.0446858717,-0.0446474993,-0.0447279314,0.0141405791,0.0041074934,-0.0001063615,9.1130819500679E-07,-2.58203752903483E-09,0.0032758881,-0.0001450679,1.63260129336046E-06,-5.32430892280675E-09,107.3210654699,57.7064537143,25.1795676327
-100,85,4.7123889804,0,0,0,5,-0.0005631914,-0.0126824931,-0.0447323678,0.0141376652,0.004646211,-0.0001367437,1.34177910135109E-06,-4.26952693587458E-09,-0.0046851088,0.0001947125,-2.21806147706593E-06,7.50118510881534E-09,86.552068521,32.4903270207,102.0172624287
-100,85,4.1887902048,0,0,0,5,0.040369344,-0.0373158811,-0.0522885233,0.0141256722,0.0042543628,-0.0001141146,1.00939436877072E-06,-2.93181607216164E-09,0.0060500087,-0.0002201839,2.28012120477041E-06,-7.1301030073696E-09,101.1130547442,60.8069937515,41.5241308183
-95,-40,5.7595865316,0,0,0,5,0.0064524169,-0.004777984,-0.0491401369,0.0140247041,-0.002837607,4.95116027590331E-05,-0.000000262,4.31725676003798E-10,-0.0026650962,8.53468255495854E-05,-7.10220210290358E-07,1.72563551974617E-09,112.4381426293,0.3197172412,142.0111857139
-100,85,3.6651914292,0,0,0,5,0.0438519356,-0.0428242104,-0.0508471224,0.0141342885,0.0040336674,-0.0001024847,8.6120346139574E-07,-2.39955958371872E-09,0.0048169731,-0.0001828818,1.91290775864112E-06,-0.000000006,111.895585547,46.6990374916,36.0257016465
-95,95,2.0943951024,0,0,0,5,0.0091924943,-0.0027999974,0.0442203099,-0.0134732978,0.0039356059,-9.78708289204906E-05,8.03852652253043E-07,-2.17075474063233E-09,-0.0029824812,0.0001034047,-1.02840053343129E-06,3.10936694533321E-09,107.5532697788,46.901649884,37.7354142417
-100,85,3.1415926536,0,0,0,5,0.0445518706,-0.0442461558,-0.0446707395,0.0141278226,0.0039488033,-9.83066930301699E-05,8.08740319179762E-07,-2.19515310068477E-09,0.00266087,-0.0001176059,1.28243627675818E-06,-0.000000004,110.4584557974,58.6342824755,22.1204774526
-95,-40,5.235987756,0,0,0,5,0.0029909256,-0.0054472933,-0.0478662933,0.0140234291,-0.0026015832,4.13710896302776E-05,-1.95063496306866E-07,2.72291823432131E-10,-0.0010324457,5.29705476337329E-05,-5.15663701424559E-07,1.36204563494507E-09,109.1885562701,0.2167751322,127.881186135
-95,95,1.5707963268,0,0,0,5,0.0447213595,-0.0447213596,0.0447362801,-0.0141421356,0.0039403121,-9.80870780906665E-05,8.1122148173658E-07,-2.21116112991362E-09,-0.0055714041,0.0001913108,-1.86256307013093E-06,5.46590698685631E-09,108.0971535569,48.2279953673,42.3637174457
-95,95,1.0471975512,0,0,0,5,0.0446891247,-0.0444910545,0.0509126432,-0.014142071,0.0037597549,-8.90101910424297E-05,6.96877828223256E-07,-1.81094051790131E-09,0.0024975247,-0.0001075904,1.15347365647405E-06,-3.54928595440102E-09,105.7014055944,2.7937921766,108.5927157385
-95,-40,4.7123889804,0,0,0,5,0.0085895105,-0.004526157,-0.0420016403,0.0139604862,-0.0029923222,5.66093460408369E-05,-3.54789006206697E-07,7.39001429741848E-10,0.0042530939,-0.0001139876,8.81676211547522E-07,-2.07751313907859E-09,148.5702938195,0.9913162504,57.595063079
-100,85,2.0943951024,0,0,0,5,0.0094036071,-0.0018332018,0.0448811091,-0.013447353,0.0038209253,-9.2231134548143E-05,7.35591514918668E-07,-1.92201500647007E-09,-0.0030291583,0.000095077,-8.76129945307138E-07,2.48038749175316E-09,108.79757104,42.5120988653,43.181268479
-100,-35,2.617993878,0,0,0,5,0.0082109848,-0.0028288825,0.0387084897,-0.0118257555,-0.0035936393,8.1667733190943E-05,-6.13461778553931E-07,1.49552323438154E-09,-0.0006324354,1.73972736861759E-05,-0.000000143,3.63834366887307E-10,107.7596004089,58.0748683834,22.0769935379
-95,95,0.5235987756,0,0,0,5,0.0094040937,-0.000562723,0.049626805,-0.0139991462,0.0035313243,-7.80934801805245E-05,5.5711818111211E-07,-1.29716036681957E-09,0.0032617816,-0.0001191563,1.15567652525738E-06,-3.29356764931113E-09,112.5137455351,3.7458067478,121.1012742148
-95,-40,4.1887902048,0,0,0,5,0.0407105136,-0.0332733716,-0.0522840945,0.0141083111,-0.0028589504,5.1157672864942E-05,-2.97135037759014E-07,5.91080655951362E-10,-0.0046445964,0.0001315113,-1.07546105379266E-06,2.67468404114201E-09,186.3367344035,1.281256816,4.8622277681
-100,85,1.5707963268,0,0,0,5,0.0095288945,-0.0007576167,0.0410532254,-0.0138156865,0.003673152,-8.53301349896935E-05,6.57066585070829E-07,-1.66681672801566E-09,-0.0045771192,0.0001411065,-1.27393975373997E-06,3.52949562699647E-09,116.5672164057,38.2821583212,48.7131067607
-95,-40,3.6651914292,0,0,0,5,0.0091504945,-0.002747035,-0.0448752158,0.0137272005,-0.0031917964,6.42422578342345E-05,-0.000000425,9.30678288434871E-10,0.0020305243,-0.000066573,5.89606874553094E-07,-1.55101748477916E-09,133.1976064951,13.0524762944,37.5202571703
-100,-35,2.0943951024,0,0,0,5,0.0439280634,0.0136544307,0.0524043772,-0.0141365681,-0.0034986887,7.70404561754423E-05,-5.6043912599532E-07,1.35382657906199E-09,-0.0042697394,0.0001405948,-1.27884833892044E-06,3.46959666090079E-09,131.8626456351,18.4830308564,41.2079879107
-95,95,0,0,0,0,5,0.040849657,-0.0242560804,0.0446081147,-0.0141367773,0.0035460799,-7.87178672658388E-05,5.68544935768293E-07,-1.36356996727013E-09,0.003944974,-0.0001369325,1.29009129098386E-06,-3.60111066896615E-09,127.2257162305,1.3250089759,125.5929931358
-100,85,1.0471975512,0,0,0,5,0.0091213831,0.0041861882,0.0480194811,-0.0140095566,0.0035347179,-7.90558688716449E-05,5.88313450357426E-07,-1.43335593176014E-09,0.0005180953,-5.11001256868358E-05,0.000000638,-2.05003212567992E-09,114.9121289931,4.9401501602,105.3568286117
-100,-35,1.5707963268,0,0,0,5,0.0059720227,-0.0081408211,0.0418206762,-0.0140044288,-0.0035082908,7.72725071409396E-05,-5.53427089275779E-07,1.3059711192667E-09,-0.003942718,9.69069194450305E-05,-7.2658695857312E-07,1.71489603202998E-09,118.5590010474,26.1622475932,61.8424224851
-100,85,0.5235987756,0,0,0,5,0.0093786542,0.0004166519,0.0496234452,-0.0140062843,0.003418507,-7.31801579183572E-05,5.05198140988963E-07,-1.13965122372609E-09,0.0032157833,-0.0001147389,1.08677869351463E-06,-0.000000003,115.379811423,3.1873314885,124.1521426932
-95,90,5.7595865316,0,0,0,5,0.0265230902,-0.0225912325,-0.0518060539,0.0141195641,0.0041126501,-0.0001036946,7.91388086798203E-07,-1.8677648657734E-09,-0.0032747989,0.0001025455,-8.62250483431088E-07,2.13957194948658E-09,69.2184338287,56.4398882432,140.3664421306
-95,-40,3.1415926536,0,0,0,5,0.0094624962,-0.0014145626,-0.0248530933,0.001720727,-0.0033376723,7.0310264482718E-05,-4.88263893974685E-07,1.1205666062194E-09,-1.41151476020003E-16,4.10151311044763E-18,-3.51228260268231E-20,9.22377569204729E-23,131.9512897837,49.459021922,0
-95,90,5.235987756,0,0,0,5,0.0400170331,-0.0387518024,-0.050795774,0.0141362435,0.0045118829,-0.0001274574,1.15830388016787E-06,-3.29867035687771E-09,-0.0039730138,0.0001454785,-1.43669526456806E-06,4.19393523094063E-09,72.4466097041,49.3622222677,119.2989863739
-100,85,0,0,0,0,5,0.0439285715,-0.0248830394,0.0447103233,-0.0141410984,0.0034502927,-7.45662902872917E-05,5.24801634702367E-07,-1.22907547592987E-09,0.0038976081,-0.0001321047,0.000001217,-3.32369612141436E-09,130.5955529038,0.0929796038,128.5053403922
-100,-35,1.0471975512,0,0,0,5,0.0447213595,0.0447213595,0.0509136301,-0.0141421356,-0.0036153619,8.18847427711921E-05,-6.00248445350463E-07,1.42231926437253E-09,-0.0055539465,0.0001851778,-1.75559793850498E-06,0.000000005,168.4248142255,7.97327443027828E-22,49.1569875367
-95,90,4.7123889804,0,0,0,5,-0.1947380703,0.0210895643,-0.0424418809,0.0139543387,0.0045531063,-0.000131167,0.000001238,-3.79126635849674E-09,-0.0026578167,0.0001397905,-0.000001767,6.36748560436851E-09,80.4119548885,45.418768109,95.9279536426
-100,80,5.7595865316,0,0,0,5,0.0084819409,-0.0053869206,-0.049368678,0.0140272628,0.004101741,-0.0001035412,7.95831468518946E-07,-1.90538154488761E-09,-0.003470607,0.0001102345,-9.50630277810887E-07,2.42913666444761E-09,68.5667233813,58.4606290993,136.8306300122
-95,-40,2.617993878,0,0,0,5,0.0095732597,-0.0002090426,0.0383354485,-0.0128695844,-0.0035553632,7.98359069250818E-05,-5.91456513075702E-07,1.42893422142202E-09,-0.0011457185,3.40576619080398E-05,-2.93159373946602E-07,7.69922052014441E-10,115.7837336334,32.9967522586,33.3844329981
-95,90,4.1887902048,0,0,0,5,0.0402167121,-0.0380167483,-0.0522985914,0.0141264659,0.0044248592,-0.0001234255,0.000001133,-3.39273273557143E-09,0.0061565044,-0.0002279072,2.40072172022247E-06,-7.63665553007292E-09,95.6820433058,64.7206462177,41.2297265125
-100,-35,0.5235987756,0,0,0,5,0.0445612642,0.0437212123,0.0524531704,-0.0141419179,-0.0040982242,0.0001062379,-9.19815988743266E-07,2.53162897691073E-09,0.0042621765,-0.0001420399,1.32377692951139E-06,-3.68938467430635E-09,91.4540404083,25.1086838852,125.2046599064
-100,80,5.235987756,0,0,0,5,0.0230168117,0.0085634828,-0.0511586602,0.0141006462,0.0043234622,-0.0001165182,1.00308600198263E-06,-2.75238595677915E-09,-0.0041710026,0.0001532983,-1.53626537571777E-06,4.56627734042576E-09,70.975079083,51.1173886777,117.1185324491
-95,-40,2.0943951024,0,0,0,5,0.0408878868,0.0162218958,0.0522072421,-0.0141168902,-0.0035477304,7.91691178392146E-05,-5.82503897639099E-07,1.42242988370945E-09,-0.0045220135,0.0001478476,-1.34822827052835E-06,3.68288261860651E-09,130.0406390502,14.5712639284,42.0967976696
-95,90,3.6651914292,0,0,0,5,0.0446851575,-0.044653162,-0.0509111646,0.0141418534,0.0041208569,-0.0001069607,0.000000917,-2.60294748425397E-09,0.0051134157,-0.000194812,2.05869913813775E-06,-6.49905349213047E-09,108.6342129597,47.0441801928,36.5257231478
-95,-40,1.5707963268,0,0,0,5,0.0408466349,0.0280993529,0.0445914149,-0.0141300917,-0.0037441997,8.82124497657343E-05,-6.84842072543272E-07,1.75186014097384E-09,-0.0054960907,0.0001816315,-1.70737696974632E-06,4.84529714851137E-09,144.258059263,7.1589602087,46.2241529832
-100,80,4.7123889804,0,0,0,5,0.0438224337,-0.0431643026,-0.0447105216,0.0141404443,0.0047481427,-0.0001423299,1.41777634471221E-06,-4.49870285704818E-09,-0.004581653,0.0001796413,-1.96454865741257E-06,6.40852172638141E-09,80.3333229532,33.489314486,105.301586807
-95,90,3.1415926536,0,0,0,5,0.044686535,-0.0446404451,-0.0447264274,0.014140182,0.0040457604,-0.0001031834,8.71729868913372E-07,-2.43962866932597E-09,0.0031184484,-0.0001389456,1.55857286128315E-06,-5.05167539770799E-09,109.9567328818,54.1076527973,24.1228350199
-100,80,4.1887902048,0,0,0,5,0.0392221044,0.0171966059,-0.0511219235,0.0140889423,0.0041657308,-0.000109253,9.4088601093091E-07,-2.64642533094902E-09,0.0056435068,-0.000200585,2.03466131559677E-06,-6.25179495248457E-09,105.8361479979,53.4190220355,42.385680926
-100,80,3.6651914292,0,0,0,5,0.0446869027,-0.0446354121,-0.0509108005,0.014141793,0.0039760439,-9.95737194833422E-05,8.25586109021123E-07,-2.27280508524665E-09,0.0046504184,-0.000176492,1.83635781460247E-06,-5.6821998748562E-09,114.7373199046,42.420866009,35.5697352059
-95,-40,1.0471975512,0,0,0,5,0.0447213513,0.0447212795,0.0509136263,-0.0141421356,-0.0040043445,0.0001021116,-8.81344760343493E-07,2.48406639314984E-09,0.0042216917,-0.0001507273,1.50738146202128E-06,-4.50232909533953E-09,98.2894896324,4.5536345492,115.4059930863
-100,80,3.1415926536,0,0,0,5,0.0438919198,-0.0420908774,-0.0443435297,0.0140544209,0.0038899025,-9.53949317319258E-05,7.73824298608582E-07,-2.07424496296415E-09,0.0020992116,-8.38258683415935E-05,8.70725467808346E-07,-2.65134957450493E-09,112.8636931804,54.7981374273,22.037570747
-95,-40,0.5235987756,0,0,0,5,0.0142262494,0.0044187834,0.0523616389,-0.0141363984,-0.0040161661,0.0001018861,-8.59596194968315E-07,2.3114684724976E-09,0.0039716176,-0.0001336866,1.24090542219712E-06,-3.42749163558633E-09,98.9514994497,13.2739688992,126.2524113832
-95,90,2.0943951024,0,0,0,5,0.0447146612,-0.0446999638,0.0524572934,-0.0141420343,0.0039425244,-9.80863796446918E-05,8.09208710675868E-07,-2.20529907078736E-09,-0.00404772,0.000155756,-1.60932694757871E-06,4.90728760160342E-09,110.1823157933,46.3531587619,33.4830416155
-100,-40,5.7595865316,0,0,0,5,0.0269545117,-0.0182331335,-0.0518574888,0.0141196424,-0.0030277494,5.71133499420997E-05,-3.45136967739574E-07,6.86213484638197E-10,-0.0026706101,8.67702456795953E-05,-7.29703025979637E-07,1.78845056693023E-09,116.8050482318,0.2616025823,140.4344978693
-95,90,1.5707963268,0,0,0,5,0.0447200573,-0.0447152579,0.0447362139,-0.0141421295,0.0038759726,-9.49272584993318E-05,7.73612446449833E-07,-2.081444151699E-09,-0.0056011533,0.0001893489,-0.000001819,5.27247321095975E-09,110.4128217066,43.9855270929,43.2334190497
-100,-40,5.235987756,0,0,0,5,0.0390151674,-0.0375431196,-0.0508048927,0.0141370153,-0.002929785,5.31275342119031E-05,-3.01241528301007E-07,5.66451199085067E-10,-0.0022813132,0.000080115,-6.9892102278304E-07,1.75477270494286E-09,104.1032082381,0.0163279603,134.1519205716
-100,80,2.0943951024,0,0,0,5,0.0447200568,-0.0447147541,0.0524579207,-0.0141421208,0.0037985107,-9.10482658489773E-05,7.25748047612767E-07,-1.91862131428408E-09,-0.0041647645,0.0001535924,-1.53576212467559E-06,4.54793852187501E-09,116.5192190146,40.1424347603,35.9114192823
-95,90,1.0471975512,0,0,0,5,0.043903946,-0.0374020536,0.0508864515,-0.0141401868,0.0037214762,-8.7431439737687E-05,6.84195166501554E-07,-1.77655721674551E-09,-0.0054848752,0.0001806382,-1.69164752408624E-06,4.78119710313705E-09,162.3290659872,0.0211364037,48.5956312293
-95,90,0.5235987756,0,0,0,5,0.0093692348,-3.57683638299022E-05,0.0496236611,-0.0140024961,0.0034793965,-7.57691210600574E-05,5.31375435229888E-07,-1.21571028760554E-09,0.003231955,-0.0001170024,1.12287223532135E-06,-3.16526728756423E-09,112.0259448064,2.8632087243,122.5033338277
-100,-40,4.7123889804,0,0,0,5,0.0447208152,-0.0447212528,-0.0447365225,0.0142127021,-0.0031064844,6.11161294089258E-05,-4.02190988573853E-07,8.87938321182279E-10,0.0047631214,-0.0001361974,1.10737557648546E-06,-2.71730511045844E-09,156.1084102955,2.08582446423861E-19,53.3998847165
-100,80,1.5707963268,0,0,0,5,0.0447213791,-0.0447213477,0.0447362851,-0.0142126704,0.0037022935,-8.66101097242092E-05,0.000000676,-1.75268268577987E-09,-0.0054796665,0.0001802577,-1.68609633222848E-06,4.75979588732458E-09,119.3151337848,37.2333018144,44.850663987
-95,-45,5.7595865316,0,0,0,5,0.0398110686,-0.0366885148,-0.0523357074,0.0141374094,-0.002999572,5.57645801656738E-05,-3.26767934528635E-07,6.34669629161075E-10,-0.0027985674,9.01910824915422E-05,-7.58506474879237E-07,1.86415623531058E-09,110.7333000428,0.0231456877,139.9799964301
-95,90,0,0,0,0,5,0.0095054457,-0.0005635102,0.0417593381,-0.0140144146,0.0033698008,-7.09686886092183E-05,4.78361949018789E-07,-1.05558072598038E-09,0.0039011624,-0.0001319818,1.22134131084339E-06,-3.35832116239162E-09,123.959483398,3.4925858815,128.0188071709
-100,80,1.0471975512,0,0,0,5,0.0284594503,0.0009572335,0.0502834707,-0.0140995989,0.0034958488,-7.72133216587028E-05,5.67580327732455E-07,-1.38969654320289E-09,-0.0051658785,0.0001612043,-1.43293719486337E-06,3.8499496828895E-09,165.3160213298,0.3762529292,51.0064547702
-95,85,5.7595865316,0,0,0,5,0.0081460558,-0.005882743,-0.0492958861,0.0140315509,0.0040792688,-0.0001020876,7.68483231428319E-07,-1.79267632184809E-09,-0.0033226052,0.0001028849,-8.63102198455335E-07,2.14349067581385E-09,68.0428227607,55.2103795522,140.586437684
-100,80,0.5235987756,0,0,0,5,0.0092986563,0.0009218699,0.0496110201,-0.0140091622,0.00336578,-7.09012417036829E-05,4.80773740669181E-07,-1.06475923482114E-09,0.0031849326,-0.00011258,1.05510736556436E-06,-2.90478024456884E-09,115.1631141585,2.536085647,125.5769792553
-95,85,5.235987756,0,0,0,5,0.0437580668,-0.0433940676,-0.0508898655,0.0141409374,0.004486846,-0.0001264787,1.15855492200441E-06,-3.33387724409451E-09,-0.0040039599,0.0001476639,-1.46870397987514E-06,4.31800548202715E-09,76.88849063,42.4516854686,118.4092235526
-95,-45,5.235987756,0,0,0,5,0.044743704,-0.0447437039,-0.0509387261,0.0142126704,-0.0025118404,3.91587871906478E-05,-1.93346398678642E-07,3.27211647982957E-10,0.0025973228,-3.90390742031956E-05,1.34496507069623E-07,-2.60955072126719E-11,193.7392201258,1.32348898008484E-23,120.4105006679
-95,85,4.7123889804,0,0,0,5,0.0446830505,-0.0446640839,-0.0447352125,0.0141420654,0.0045387648,-0.0001304892,1.25252133159571E-06,-3.93826721861372E-09,-0.0044701636,0.0001929256,-2.2403354412412E-06,7.67860820959169E-09,89.9077533607,25.8632422676,100.7715451548
-100,80,0,0,0,0,5,-0.018174706,0.0236965283,0.0432214194,-0.0140080358,0.0032919935,-6.67354154559064E-05,0.000000413,-8.04943373452142E-10,0.0018747912,-4.58811231496212E-05,0.000000281,-4.57740909838957E-10,97.1459428272,8.9822840709,168.7668304159
-95,85,4.1887902048,0,0,0,5,0.0447139249,-0.0447088573,-0.0524577757,0.0141421096,0.0043198655,-0.0001176762,1.05705324788124E-06,-3.11302089738707E-09,0.0061226449,-0.0002250425,0.000002352,-7.41875492954444E-09,98.3197201518,59.414881186,41.2650043304
-95,-45,4.7123889804,0,0,0,5,0.0184633405,0.0021019117,-0.0410187582,0.0140285704,-0.0030100835,5.73116836377694E-05,-3.60621748921224E-07,7.3311377504724E-10,0.0027510072,-4.96498396559713E-05,2.49944850420664E-07,-3.43151865464016E-10,133.2207737362,0.7876440585,76.9016331113
-100,75,5.7595865316,0,0,0,5,0.0404250857,-0.0371918139,-0.0523297612,0.0141373462,0.0041061572,-0.0001048654,8.47510382522884E-07,-2.13395136366998E-09,-0.0034556081,0.000112548,-9.85676601999045E-07,2.54883225747934E-09,75.6347476431,49.230468417,134.7555733603
-100,-40,4.1887902048,0,0,0,5,0.0363371617,-0.012050488,-0.0523927151,0.0140726991,-0.0029168726,5.33796508052058E-05,-3.19842897255458E-07,6.5572825768388E-10,-0.0048896745,0.0001435315,-0.000001198,0.000000003,191.0659316332,1.226917205,4.7897649576
-95,-45,4.1887902048,0,0,0,5,0.0445599969,-0.0439592454,-0.0524494528,0.0141413264,-0.003363669,7.1544478393437E-05,-0.000000509,1.20042604325945E-09,0.0046378825,-0.0001403602,1.19687702303341E-06,-3.06823762891713E-09,117.5966518745,24.8069293182,46.3316569001
-95,85,3.6651914292,0,0,0,5,0.0447142684,-0.0447065221,-0.0509131105,0.0141420748,0.0040570314,-0.000103661,8.7567314843835E-07,-2.45296907119426E-09,0.0049523566,-0.0001880502,1.97352829192602E-06,-6.1784779838914E-09,111.5633479963,42.2430585727,36.2268437743
-100,75,5.235987756,0,0,0,5,0.0447140396,-0.0447087852,-0.0509134371,0.0141421255,0.0043876402,-0.0001211797,1.10133804670854E-06,-3.18787837699312E-09,-0.004087284,0.000154285,-1.57006612229793E-06,4.72214993993052E-09,89.0155901024,31.024409266,115.5990485247
-95,-45,3.6651914292,0,0,0,5,0.0288429788,-0.0079466738,-0.0490370228,0.0139788789,-0.0034484621,7.5150176729582E-05,-5.45601139893539E-07,1.31486933465562E-09,0.0029544278,-0.0001003859,9.19823560868472E-07,-2.4984821769518E-09,126.6629032469,19.7160148233,35.6477894421
-95,85,3.1415926536,0,0,0,5,0.0446871381,-0.0446313407,-0.044724271,0.0141395687,0.003984002,-0.0001000482,8.33211054266034E-07,-2.30260280434172E-09,0.0029593746,-0.0001327753,1.48439427913571E-06,-4.78063188451023E-09,112.8940913352,50.5802339703,22.8939597912
-100,75,4.7123889804,0,0,0,5,0.0314456885,0.0129846278,-0.0519658902,0.0140314925,0.0044172224,-0.0001233903,1.14269921970407E-06,-3.43245788763229E-09,-0.004155409,0.0001654115,-1.81246190663365E-06,5.89296726939962E-09,77.9714511311,33.8160237605,105.2512498228
-100,-40,3.6651914292,0,0,0,5,0.0439213087,-0.0400704415,-0.0508125138,0.0141281554,-0.0034495532,0.000075184,-0.000000547,1.32006660184957E-09,0.003470837,-0.0001188958,0.00000109,-2.94682386109488E-09,126.3842719249,25.0546767575,36.0593351691
-100,75,4.1887902048,0,0,0,5,0.0062610949,0.0138805439,-0.0485214939,0.0139592581,0.0038776268,-9.44726840454559E-05,7.44141946912561E-07,-1.91518083253204E-09,0.0032347711,-7.72454681147804E-05,5.52450015414388E-07,-1.21308224924524E-09,99.1483285673,43.5606889614,61.4459102356
-100,75,3.6651914292,0,0,0,5,0.0445523442,-0.0442349777,-0.0508986453,0.0141402947,0.0038979546,-9.57141738144729E-05,7.75868427688436E-07,-2.07946823986494E-09,0.0042704572,-0.000159491,1.61790622432255E-06,-4.86406459328637E-09,113.9057650355,41.9020756032,35.419735623
-95,-45,2.617993878,0,0,0,5,0.0445614971,0.0392950354,0.0508852652,-0.0141377462,-0.0035233897,7.81931520867493E-05,-5.74515778062056E-07,1.4015097961769E-09,-0.0030661569,0.0001144381,-1.10513962777411E-06,3.11048289767324E-09,129.3499548451,21.4532980621,30.5750038356
-100,-40,3.1415926536,0,0,0,5,0.0094720306,-0.0013433643,-0.0246650627,0.0015154624,-0.0033460969,7.06633407801844E-05,-0.000000492,1.13129565180209E-09,8.4982820821779E-17,-2.5653325428157E-18,2.24484222213808E-20,-5.97660161189976E-23,131.281783192,55.0904000227,0
-95,85,2.0943951024,0,0,0,5,0.0439033997,-0.0416638751,0.0523735282,-0.0141311945,0.0038795116,-9.49823027320285E-05,7.7221991434588E-07,-2.07741400302838E-09,-0.0041057459,0.0001544855,-1.57019565672484E-06,4.72132537053694E-09,112.5981180153,41.407090539,34.7071879827
-95,-45,2.0943951024,0,0,0,5,0.0408670122,0.0239771971,0.0522209055,-0.014118743,-0.0035965548,8.13351046086665E-05,-6.05748820785726E-07,1.49687645318329E-09,-0.0047957234,0.0001568207,-1.43974043641948E-06,0.000000004,128.6991726256,15.7488795898,42.6570087153
-95,85,1.5707963268,0,0,0,5,0.0439220854,-0.039920428,0.044697491,-0.0141385765,0.0037911446,-9.07903997204481E-05,7.24559718357681E-07,-1.91520513753106E-09,-0.0055493571,0.0001852622,-1.75844056986093E-06,0.000000005,112.4779720527,40.3852423731,43.9862138685
-100,75,3.1415926536,0,0,0,5,0.0445508552,-0.0440119777,-0.0446463624,0.0141205197,0.0038287367,-9.24144677012387E-05,7.38744053058099E-07,-0.000000002,0.0023313785,-0.0001026574,1.10268362448331E-06,-3.399296334575E-09,114.9098882248,54.660590599,18.8073848012
-95,-45,1.5707963268,0,0,0,5,0.0408157512,0.0309064407,0.0445941775,-0.0141305575,-0.0037792793,8.97105432950495E-05,-6.98255655738455E-07,1.78191290556328E-09,-0.0055716852,0.0001866483,-1.77846352099197E-06,5.11570188659112E-09,147.3388717391,5.0191268742,46.1704111053
-100,-40,2.617993878,0,0,0,5,0.0408966715,-0.0073389258,0.0501251959,-0.0140236279,-0.0034841462,7.64958898177523E-05,-5.56476987194167E-07,1.34269207456504E-09,-0.0023262191,8.10058052921992E-05,-7.5017877300951E-07,2.05150075462859E-09,128.4356576058,27.1708436996,30.9302101245
-100,75,2.617993878,0,0,0,5,0.04472039,-0.0447107899,0.0509125344,-0.0141420552,0.0037980393,-0.000090951,7.225090980636E-07,-1.90344886929568E-09,-0.0019649342,9.89672461935317E-05,-0.000001116,3.52443667068809E-09,153.68918823,18.7615515547,16.0178809918
-95,-45,1.0471975512,0,0,0,5,0.0445571653,0.044137063,0.0509088412,-0.0141418718,-0.0043576749,0.0001207753,-1.13021296833612E-06,3.36893632499638E-09,0.0046786498,-0.0001627018,1.61922429491934E-06,-4.85177077728183E-09,83.9173627997,19.3947055173,115.7483041252
-100,-40,2.0943951024,0,0,0,5,0.0439265776,0.0347934602,0.052407479,-0.0141370096,-0.0035408242,0.000078873,-5.79730167943634E-07,1.41506656606838E-09,-0.0045402617,0.0001490089,-1.36176209201807E-06,3.72359914193977E-09,131.2672481891,18.4674236901,41.9272399436
-95,85,1.0471975512,0,0,0,5,0.0447213595,-0.0447213595,0.0509136301,-0.0141421357,0.0035525958,-7.96815434915724E-05,5.94310227702847E-07,-1.47620204395551E-09,-0.0053074195,0.0001691034,-0.000001532,4.18895282530233E-09,161.6684527511,0,49.6606771414
-100,75,2.0943951024,0,0,0,5,0.0289404515,-0.0059021264,0.0508735531,-0.0139704536,0.0037605634,-8.92814121685682E-05,7.04598338806782E-07,-1.83522352781038E-09,-0.0039087705,0.0001306522,-0.000001232,3.50586875759568E-09,113.4620440971,38.1303758202,40.5673434377
-100,-40,1.5707963268,0,0,0,5,0.0288326078,0.0084307594,0.0440201719,-0.0140830839,-0.0037347345,8.7814943218148E-05,-6.80774361822902E-07,1.74034073972549E-09,-0.0053622045,0.0001746829,-1.6237703782187E-06,4.56774329474396E-09,142.186449514,13.8567193026,46.8425560552
-95,-45,0.5235987756,0,0,0,5,0.104117427,0.0040899673,0.0743313984,-0.0144480531,-0.0039642453,9.96560721139771E-05,-8.34306751890143E-07,2.22318454228409E-09,0.0034695759,-8.87835278185381E-05,6.59624973842163E-07,-1.48172198423945E-09,75.5247886104,20.1879934922,153.3863140537
-95,85,0.5235987756,0,0,0,5,0.0439259466,-0.0165627855,0.0524350244,-0.0141409998,0.0035639886,-7.98204772307842E-05,5.86069502424356E-07,-1.42300292075261E-09,0.0029753598,-0.0001125041,1.09250580457139E-06,-3.08429476310286E-09,111.777610358,3.011676075,121.6828028045
-100,75,1.5707963268,0,0,0,5,0.0447213594,-0.0447213598,0.0447362801,-0.0141424844,0.0036011343,-8.18553160139991E-05,6.19289109558686E-07,-1.55401078295569E-09,-0.005302072,0.0001687628,-1.52741428521823E-06,4.17209589365227E-09,114.1718636978,40.8963745379,46.412042938
-95,85,0,0,0,0,5,0.0439252339,-0.0229031958,0.0447102476,-0.0141410961,0.0034649982,-7.51180871710345E-05,5.29066490011885E-07,-1.23856602826958E-09,0.0038950658,-0.0001321396,1.21820381492112E-06,-3.3289585349678E-09,125.6810672394,0.0599591527,128.4401907478
-100,-40,1.0471975512,0,0,0,5,0.039881761,0.0372003995,0.0508771601,-0.0141405987,-0.0039081003,9.69842140416211E-05,-8.10680051922755E-07,2.22920878701347E-09,0.0039202362,-0.0001445137,1.45937315307311E-06,-4.36915658280532E-09,105.1389281715,3.4125472827,114.7378280533
-100,75,1.0471975512,0,0,0,5,0.0407388033,0.0149207955,0.0507899675,-0.0141338671,0.0034268545,-7.4236538948401E-05,5.35869430907039E-07,-1.29184374761375E-09,-0.0051650499,0.0001602847,-1.41460951534101E-06,3.76850094208675E-09,165.4771941668,0.0783764676,51.3590981138
-95,80,5.7595865316,0,0,0,5,0.0083683971,-0.0055434733,-0.0493098183,0.0140283366,0.0041012127,-0.0001034239,7.92085367569059E-07,-1.88758037185651E-09,-0.003487425,0.0001096812,-9.39204983880477E-07,2.38514917242968E-09,68.012637195,54.0330487905,137.7439607286
-100,-40,0.5235987756,0,0,0,5,0.0340759569,-0.0374573747,0.05053603,-0.0140593773,-0.0040236791,0.0001025932,-8.7022837558205E-07,2.35010742218861E-09,0.0037351884,-9.83701235625327E-05,0.000000754,-1.75225277049055E-09,73.9100235678,28.8497480321,149.5774613325
-100,75,0.5235987756,0,0,0,5,0.0091851644,0.0014258966,0.0495928383,-0.0140118123,0.0033101188,-6.85298793397401E-05,4.55649591123866E-07,-0.000000001,0.0031525978,-0.0001103818,1.0234531353543E-06,-2.78662878997976E-09,115.0327243937,2.036751447,127.0336488846
-95,80,5.235987756,0,0,0,5,0.0445322829,-0.0444300625,-0.0509087218,0.0141418914,0.0044602349,-0.0001252796,1.15251180718187E-06,-3.34130019479047E-09,-0.0040464676,0.0001502182,-1.50479624797216E-06,4.45662883427558E-09,86.3559538988,30.7038999985,117.5023757549
-95,-50,5.7595865316,0,0,0,5,0.0072069574,-0.004165701,-0.0493180712,0.014023169,-0.0029706031,5.44724444759155E-05,-3.07733073038542E-07,5.50766532768015E-10,-0.0027523757,8.96474079500354E-05,-0.000000761,1.88782197353957E-09,110.0947483442,0.3629610644,139.0025019648
-95,80,4.7123889804,0,0,0,5,0.0445343955,-0.044420245,-0.0447309712,0.0141417843,0.0044846355,-0.00012748,1.21229996272771E-06,-3.77822765660301E-09,-0.0044255693,0.0001876645,-2.15425075253007E-06,7.30954035165912E-09,90.6242658506,21.920119591,101.5359328242
-95,80,4.1887902048,0,0,0,5,0.3848246741,0.0899672942,-0.0464831135,0.0145236168,0.0041109342,-0.0001064806,8.99893824779386E-07,-2.48601929278785E-09,0.0037898687,-0.0001029726,8.45079220411783E-07,-2.17237493738878E-09,97.3000296357,47.0952820434,55.9050401606
-100,-45,5.7595865316,0,0,0,5,0.0275542844,-0.0165469256,-0.0518681929,0.0141194725,-0.0030686607,5.86929285714615E-05,-0.00000036,7.24941211698294E-10,-0.0026574334,8.76874126852573E-05,-7.4676674882835E-07,1.85165486352226E-09,115.9037570616,0.3739352064,138.7184921568
-95,80,3.6651914292,0,0,0,5,0.0446866274,-0.0446393629,-0.0509108714,0.0141418047,0.0039964031,-0.000100579,8.37657680491563E-07,-2.31644784733487E-09,0.0047678848,-0.0001807092,1.88422317957047E-06,-5.85032692310633E-09,114.4557861824,37.7877106863,35.8200313456
-95,-50,5.235987756,0,0,0,5,0.0447213594,-0.0447436383,-0.0509386529,0.0142124312,-0.0030274222,5.78514057094535E-05,-3.66457224139628E-07,7.79530194348723E-10,0.0046675623,-0.0001307872,0.000001042,-2.50569631243228E-09,162.3459137721,1.84527452459691E-31,57.09768425
-100,75,0,0,0,0,5,0.0559964459,0.0427452235,0.0483262614,-0.0140594615,0.0029601861,-5.34108348404497E-05,2.83589657139397E-07,-4.5045918608241E-10,0.0033211871,-0.0001110157,9.89716317412208E-07,-2.60168277799323E-09,108.3034438598,21.9618520522,133.6607133374
-95,80,3.1415926536,0,0,0,5,0.0446877399,-0.0446174529,-0.0447207272,0.0141384869,0.0039086762,-9.63198706197736E-05,7.85078972921912E-07,-2.11434350059882E-09,0.0026203206,-0.0001178964,1.29242130689308E-06,-4.0556488666006E-09,112.2948718538,51.740163843,20.8617821667
-100,-45,5.235987756,0,0,0,5,0.0239376522,-0.0196628194,-0.050374995,0.0141160103,-0.0030085293,5.6048469265042E-05,-0.000000327,6.21494474214611E-10,-0.002315143,8.20332530023271E-05,-0.000000723,1.83476821941204E-09,102.8615740849,0.0776343635,132.6661103448
-95,-50,4.7123889804,0,0,0,5,0.0244930229,-0.0184729453,-0.0442312428,0.0141128904,-0.003010992,0.000057391,-0.000000366,7.87306617620906E-10,2.77122310436717E-06,3.52919281241652E-05,-4.59448216732182E-07,1.42178801101215E-09,101.3377112021,0.1426508176,107.1261207209
-100,70,5.7595865316,0,0,0,5,0.0404895914,-0.0367754701,-0.0523310561,0.0141372952,0.0040664682,-0.0001032689,0.000000838,-2.12568139226609E-09,-0.0034662524,0.0001137949,-1.00387386786268E-06,2.61420842803379E-09,78.63853712,44.5335473361,133.758006265
-100,-45,4.7123889804,0,0,0,5,0.0435555567,-0.043022152,-0.0447151404,0.0141408788,-0.0030340891,5.78009125252163E-05,-3.59626915450915E-07,7.55451611837417E-10,-0.0011477551,6.15357027894672E-05,-6.34842253450837E-07,1.77917061661559E-09,97.8138123172,0.004228837,116.5728798096
-100,70,5.235987756,0,0,0,5,0.0017555051,0.0018125385,-0.0484179341,0.0139819807,0.0040252808,-0.0001042138,8.85728130815469E-07,-2.43836906029951E-09,-0.0040034377,0.0001505267,-1.53108365888372E-06,4.61338002652766E-09,81.9758622773,37.5824956547,116.015518192
-95,80,2.0943951024,0,0,0,5,0.0393226633,0.005459335,0.0507513561,-0.0139539333,0.0038011651,-9.11967418230775E-05,7.27247909289295E-07,-1.91863875483448E-09,-0.0031650271,9.64729180099594E-05,-8.63529001102652E-07,2.3811856350885E-09,137.6389284235,6.622059416,43.9509620398
-95,-50,4.1887902048,0,0,0,5,0.0093242115,-0.0023445401,-0.0478326565,0.0137555253,-0.0033820782,7.25303155401911E-05,-5.19654674985434E-07,1.22854043315667E-09,0.0038618516,-0.0001089724,9.04086416240522E-07,-2.3060134199713E-09,121.9553532555,16.3152518923,50.6930847604
-100,70,4.7123889804,0,0,0,5,0.0438575559,-0.0429521924,-0.0447107506,0.0141404425,0.0046652742,-0.0001376958,1.35785633229422E-06,-4.2560604985927E-09,-0.0045512096,0.0001708365,-1.81842580743156E-06,5.80108369598179E-09,80.2370631801,27.3139305117,107.1989109641
-95,-50,3.6651914292,0,0,0,5,0.0289254421,-0.0052048485,-0.0488850468,0.0139652291,-0.0034873023,7.67933109383949E-05,-5.62236727702118E-07,1.36666922425273E-09,0.0026923415,-9.45822516849292E-05,8.85361551029795E-07,-2.44714611158194E-09,126.6869511635,21.5657409618,33.3543658182
-95,80,1.5707963268,0,0,0,5,0.0289889633,-0.0024463192,0.0439270597,-0.0140668073,0.0036932636,-8.62338009012949E-05,6.71551209975613E-07,-1.73516293592481E-09,-0.0052985793,0.0001710289,-1.58064292401926E-06,4.4298304802285E-09,119.0251021165,31.8725954866,45.8760612035
-100,-45,4.1887902048,0,0,0,5,0.0092259956,-0.0027891461,-0.048046962,0.0137870272,-0.003314456,6.95465587169416E-05,-4.85943586780101E-07,1.11700366008842E-09,0.003770691,-0.0001040012,8.39937866841136E-07,-2.08147320258847E-09,125.1334135892,18.0398836701,51.936179492
-100,70,4.1887902048,0,0,0,5,0.0438740844,-0.0425293911,-0.0524177084,0.014138367,0.0039826289,-9.98983255676633E-05,8.29430118719218E-07,-2.28646081272783E-09,0.0058710346,-0.0002075174,2.08523780042768E-06,-6.3233852785623E-09,114.6274848226,40.74709023,41.8336612909
-100,-45,3.6651914292,0,0,0,5,0.0288665858,-0.0073437535,-0.0489466779,0.01396581,-0.0034554491,7.54227657355777E-05,-0.000000548,1.32086543342881E-09,0.0028873276,-9.77627985770916E-05,8.94096057628523E-07,-2.42585754694933E-09,126.5599640655,24.7715462324,35.67015127
-100,70,3.6651914292,0,0,0,5,0.0447213596,-0.0447213595,-0.0509136301,0.0141421356,0.0038330271,-0.000092542,7.38332336350923E-07,-0.000000002,0.0041193184,-0.0001535701,1.54771754343004E-06,-4.61469751433849E-09,117.1299293668,37.7207549866,34.9254767312
-95,80,1.0471975512,0,0,0,5,0.0447213596,0.0447213596,0.0509136301,-0.0141421358,0.0034715113,-7.61566521175892E-05,5.56235889863752E-07,-1.35704680833723E-09,-0.0052431906,0.0001650353,-1.47708992704148E-06,0.000000004,161.170055376,3.74629917671714E-23,50.3754956271
-95,-50,2.617993878,0,0,0,5,0.0445609626,0.0429053637,0.0508894094,-0.0141385965,-0.0035784833,8.0647653094837E-05,-0.000000601,1.4851998238616E-09,-0.0032878564,0.0001215621,-1.17751816340319E-06,3.33780655488602E-09,126.5770307421,22.9936989896,32.0073587854
-95,-50,2.0943951024,0,0,0,5,0.043916602,0.040337714,0.0524116857,-0.0141376065,-0.0037217501,8.72025624961892E-05,-6.75541296106831E-07,1.73775437950619E-09,-0.0049876962,0.0001696034,-1.61705335307652E-06,4.6258452643679E-09,123.5065272555,22.3264537699,41.7125789196
-100,-45,2.617993878,0,0,0,5,0.0439278907,0.0238449579,0.0507723981,-0.0141204682,-0.0035219167,0.000078132,-5.73831677618026E-07,1.39885033701624E-09,-0.0029956169,0.0001106694,-1.06137326137911E-06,0.000000003,128.8629797473,26.6486781371,30.8806007277
-100,-45,2.0943951024,0,0,0,5,0.044560474,0.0434867443,0.0524484433,-0.0141411824,-0.0035830006,8.07297980671009E-05,-5.99558827354777E-07,1.47897959619165E-09,-0.0048197523,0.0001579264,-1.45123531747032E-06,0.000000004,131.0994930883,18.4017560907,42.5335833349
-95,-50,1.5707963268,0,0,0,5,0.0031217271,-0.0123784051,0.0430107967,-0.0139581697,-0.0038507276,9.37758828778881E-05,-7.51695182751034E-07,0.000000002,-0.0047118312,0.0001369544,-1.19020567493582E-06,3.21693949482358E-09,134.0787745473,14.1607808619,54.5095043446
-95,80,0.5235987756,0,0,0,5,0.0091758169,0.0010594423,0.0495993536,-0.0140083815,0.0033630947,-7.06752572187189E-05,4.7580963035189E-07,-0.000000001,0.0031685071,-0.0001125553,1.05668456184761E-06,-2.91160967490141E-09,111.2009240414,1.6493950744,125.4517427426
-100,70,2.617993878,0,0,0,5,0.0093172571,-0.0013747342,0.0314413999,-0.0112894798,0.0037153938,-8.72782255348919E-05,6.79398595400563E-07,-1.75024260894071E-09,0.0007932193,-2.2223937676601E-05,1.90773401314336E-07,-5.1333656083772E-10,170.5704877501,10.9841577924,6.3924909984
-100,-45,1.5707963268,0,0,0,5,0.0445582407,0.0440250647,0.0447305882,-0.0141416675,-0.0037547329,0.000088515,-0.000000684,1.73320652267506E-09,-0.005564852,0.0001859134,-1.76611454082335E-06,5.0634512494316E-09,148.9193071169,8.379330673,46.1242801941
-100,70,2.0943951024,0,0,0,5,0.0095614254,-0.0002022671,0.0463143597,-0.0135850674,0.0036595493,-8.47445455911714E-05,6.51889230012938E-07,-1.64876853868304E-09,-0.0034315135,0.0001030592,-9.12798378930853E-07,2.48930939267266E-09,113.2246890798,32.7330581279,46.5643503165
-95,-50,1.0471975512,0,0,0,5,0.0444826826,0.0444644399,0.0509120258,-0.0141442822,-0.0040380073,0.0001034155,-8.92880987448009E-07,2.55259313899164E-09,0.0042548754,-0.0001671349,1.77732380427677E-06,-5.59100584712844E-09,98.4610426482,10.7469827201,110.229443846
-100,70,1.5707963268,0,0,0,5,0.0087253304,-0.0003269139,0.0410297775,-0.0138730884,0.0033527928,-7.11468689078539E-05,5.00771504007061E-07,-1.17611662443552E-09,-0.0042890261,0.0001304566,-1.14054420057666E-06,0.000000003,125.2514241194,28.8506413894,49.8396629241
-95,80,0,0,0,0,5,0.0093919548,0.0003788765,0.041635223,-0.0140173896,0.0032761361,-6.69665130172829E-05,4.35801707323045E-07,-9.25353573658076E-10,0.0038162596,-0.0001266329,1.14839436272791E-06,-3.09356990045301E-09,122.9504056049,2.3252961823,130.7674759386
-100,-45,1.0471975512,0,0,0,5,0.0447232796,0.0447176796,0.0509136686,-0.014212675,-0.004366296,0.000121003,-1.12780730751598E-06,3.34337216486917E-09,0.0045937103,-0.0001599116,1.58749979581303E-06,-4.73870704771586E-09,86.012404963,22.1389942687,115.9002283922
-95,-50,0.5235987756,0,0,0,5,0.0446877318,0.0446225376,0.0524570331,-0.014142094,-0.0039648875,9.90037269250902E-05,-8.15193741622757E-07,2.1386158345711E-09,0.0037269011,-0.0001270886,1.1698364795525E-06,-3.1840046014754E-09,98.110331108,15.8154085852,128.0659642792
-95,75,5.7595865316,0,0,0,5,0.0085377842,-0.0051847088,-0.0493238383,0.0140276473,0.0040607261,-0.0001016908,7.79482938013433E-07,-1.8652894596378E-09,-0.0035290954,0.0001112238,-9.57151829757536E-07,2.44485289514441E-09,69.0717792435,50.9300606967,136.9261066203
-100,-45,0.5235987756,0,0,0,5,0.043903758,0.0416819789,0.0524330274,-0.0141410719,-0.0040016394,0.0001009221,-8.4223541436771E-07,2.24167524830086E-09,0.0038570055,-0.0001316708,1.22353603234577E-06,-3.37027395727278E-09,96.6340659582,21.5180980804,126.5185916952
-100,70,1.0471975512,0,0,0,5,0.0056053547,-0.0002068115,0.0473015699,-0.0139234742,0.0031779316,-6.32872784327324E-05,4.06857789326074E-07,-8.48787727216292E-10,0.0003210485,-3.76899301439937E-05,0.000000417,-1.16748682707498E-09,94.3741069287,15.7008724409,120.7539360991
-95,75,5.235987756,0,0,0,5,0.0447139293,-0.0447090954,-0.0509134343,0.0141421257,0.0043777147,-0.0001206579,1.09376634846011E-06,-3.15283473578616E-09,-0.004062737,0.0001522755,-1.53889968437898E-06,4.59664726483945E-09,88.972746434,26.1475133563,116.4464096084
-100,70,0.5235987756,0,0,0,5,0.0439191745,0.0391197789,0.0524352893,-0.0141411134,0.0033914977,-7.22433277732885E-05,5.03253267005457E-07,-1.15763609751396E-09,0.0027919109,-0.0001003653,9.24509397332751E-07,-2.47405856781014E-09,114.989004507,1.411058776,128.3611988971
-95,75,4.7123889804,0,0,0,5,0.0445440635,-0.044405575,-0.044731245,0.0141417322,0.0041294024,-0.0001066044,8.9011928796992E-07,-2.40370960497667E-09,0.0061471389,-0.0002268519,2.38047226431482E-06,-7.53881545382082E-09,145.9874509481,18.7820537451,44.0689483182
-100,70,0,0,0,0,5,0.0161306202,-0.016596921,0.0422989967,-0.0140227302,0.003089851,-5.91272117181747E-05,3.51553045844868E-07,-6.71735955186368E-10,0.0038785646,-0.0001208066,1.04234796473054E-06,-2.68390181349044E-09,119.772394678,7.3703290783,136.7802784599
-95,75,4.1887902048,0,0,0,5,0.0405024008,-0.0364402946,-0.0522770705,0.0141247375,0.0041138334,-0.0001066574,9.13592151222986E-07,-2.58430695473088E-09,0.0059568686,-0.0002136541,2.18027117451453E-06,-6.71826393890638E-09,107.8147321648,44.9811555551,41.7188909752
-95,75,3.6651914292,0,0,0,5,0.0406307833,0.0406656471,0.0443736009,0.0142246585,0.0033783591,-6.99267484497278E-05,4.32084159538207E-07,-8.12985154129142E-10,0.0036804478,-0.0001120176,1.02157450169915E-06,-2.88702388768529E-09,93.1541935163,50.7474068375,46.4123024912
-100,65,5.7595865316,0,0,0,5,0.0438532854,-0.0428743993,-0.0524328867,0.0141411554,0.0040405448,-0.0001023247,8.36224296995043E-07,-2.14169215925514E-09,-0.0034822183,0.0001152856,-1.02486911482591E-06,2.68881389313844E-09,82.48641076,39.1256112892,132.7057816867
-95,-55,5.7595865316,0,0,0,5,0.0269282644,-0.0156701371,-0.0518639473,0.0141175196,-0.0031148383,0.000060344,-3.71594942727412E-07,7.53841147356552E-10,-0.0029216491,9.79274202439785E-05,-8.57345748804616E-07,2.1942261558659E-09,110.5570241169,0.1473622641,134.5992069144
-100,-50,5.7595865316,0,0,0,5,0.0081834614,-0.0037798747,-0.0494639228,0.0140272917,-0.0030492558,5.77894880109863E-05,-3.45825185642496E-07,6.67685597377725E-10,-0.0027672643,9.00616636687981E-05,-7.6656685609E-07,1.9084188413657E-09,114.5539709768,0.579542857,138.5620204241
-100,65,5.235987756,0,0,0,5,0.0445495998,-0.0443269329,-0.0509086362,0.0141418651,0.0045497869,-0.0001307285,1.24942672329399E-06,-3.80215209219432E-09,-0.0047136131,0.0001766071,-1.83645102832485E-06,5.6983430758824E-09,83.5468370145,33.8249744348,112.3812079347
-95,75,3.1415926536,0,0,0,5,0.044476874,-0.0435896945,-0.044628869,0.0141182953,0.0038457517,-9.32385645365247E-05,7.48530641530593E-07,-0.000000002,0.0023590797,-0.0001036872,1.11540281150853E-06,-3.44705897921644E-09,114.2294007842,49.9495377517,19.3474029645
-95,-55,5.235987756,0,0,0,5,0.0238046511,-0.0176879738,-0.0503576338,0.0141140888,-0.002964936,5.39742880400111E-05,-2.97610627383736E-07,5.18978528331418E-10,-0.0022975489,8.6486820825974E-05,-7.99775598020917E-07,2.12177386229811E-09,99.3750411267,0.0680165942,126.8102136601
-100,-50,5.235987756,0,0,0,5,0.0256871125,-0.0180658445,-0.0503818231,0.0141150002,-0.0031039082,6.00626121281522E-05,-3.71548790092734E-07,7.57855019384793E-10,-0.0023189734,8.57290850432595E-05,-7.82596207150113E-07,2.05259045135812E-09,103.7749725937,0.10917197,128.4834610442
-100,65,4.7123889804,0,0,0,5,-0.0131839341,0.0318199547,-0.0430087099,0.0139758451,0.0039421191,-0.0001005616,8.50272013669246E-07,-2.38642007256482E-09,0.0045355509,-0.000127502,1.09671079457127E-06,-0.000000003,126.3685567509,30.73522014,58.0533952784
-100,65,4.1887902048,0,0,0,5,0.0446875443,-0.0446237989,-0.0524564151,0.0141419823,0.0038524257,-9.33821980054129E-05,7.46891905252037E-07,-0.000000002,0.0056871469,-0.0001941792,1.88520357657326E-06,-5.52370714004351E-09,119.7652858937,33.314116239,42.7636635566
-100,-50,4.7123889804,0,0,0,5,0.0179143195,-0.0026772186,-0.0435149384,0.0140260073,-0.003200617,6.48002107271427E-05,-4.3671939598657E-07,0.000000001,0.0045964893,-0.0001288591,1.04338641278186E-06,-2.57484099203053E-09,146.5116296235,6.1637254114,54.2287419368
-95,-55,4.7123889804,0,0,0,5,0.0092106303,-0.0028236802,-0.0417811255,0.0139245704,-0.0031980225,6.47148473312813E-05,-4.34736722962837E-07,0.000000001,0.0044089862,-0.000124122,1.01288748272805E-06,-2.52364415135862E-09,141.655697,5.4185379977,54.3158345724
-95,75,2.0943951024,0,0,0,5,0.0095310579,-0.0008249821,0.0458124197,-0.0135257411,0.0037316315,-8.8089408635168E-05,6.90085434155689E-07,-1.77496508828653E-09,-0.0033168776,0.0001006398,-9.02312629595581E-07,2.4931878393718E-09,110.60327257,31.6831175944,45.6255680522
-95,-55,4.1887902048,0,0,0,5,0.043931707,-0.0365916494,-0.0524083505,0.0141370661,-0.0035195176,7.83244291682632E-05,-0.000000583,1.43861815242593E-09,0.0046382001,-0.0001488804,1.33764602021787E-06,-3.6035340609604E-09,118.9839632806,24.5594231778,43.2300686048
-100,65,3.6651914292,0,0,0,5,0.0447213596,-0.0447213595,-0.0509136301,0.0141421356,0.00376957,-8.94911237636737E-05,7.02787210218237E-07,-1.83139422991883E-09,0.0039595821,-0.000147429,1.47618477571091E-06,-4.36449188501874E-09,120.6348998096,33.5727482787,34.3507578737
-100,65,3.1415926536,0,0,0,5,0.0408527813,-0.0262006785,-0.0397045721,0.0124469079,0.0037282074,-8.76302403058092E-05,6.83170856910166E-07,-1.76567348024012E-09,0.0013304275,-3.77501058382217E-05,3.25890323821253E-07,-8.78429422715654E-10,119.3204817457,52.0595455283,15.0775235349
-100,-50,4.1887902048,0,0,0,5,0.0439267111,-0.0396367869,-0.0524117452,0.0141375882,-0.0034746547,7.63559215381945E-05,-5.61537056734276E-07,1.3690528382465E-09,0.0046820886,-0.0001473712,1.30272550288446E-06,-3.45753426508824E-09,122.1459342139,25.9297836662,44.4086191079
-95,75,1.5707963268,0,0,0,5,0.0447214114,-0.0447213596,0.0447362801,-0.0141421356,0.0036086451,-8.22259469144442E-05,6.24274382943933E-07,-1.57207706803857E-09,-0.0053138396,0.0001695128,-1.53760688957346E-06,4.20925826091823E-09,122.3357836018,27.7768988517,46.3229214906
-95,-55,3.6651914292,0,0,0,5,0.0446695448,0.0231505885,-0.0509121343,0.0141406443,-0.0035108545,7.77989318689909E-05,-5.72695234484469E-07,1.40500299116842E-09,0.002622443,-0.0001059407,0.000001063,-3.06961633755228E-09,141.5794030835,12.5172796669,27.3647274456
-100,-50,3.6651914292,0,0,0,5,0.0289381478,-0.0047368095,-0.048796812,0.0139533137,-0.0034936832,7.70485272847379E-05,-5.64650809776073E-07,1.37274482084364E-09,0.0026585238,-9.27999143623343E-05,8.65726696185705E-07,-2.3875058042334E-09,126.2371499757,26.8500239274,33.5068853704
-100,65,2.0943951024,0,0,0,5,0.0095596319,0.000358898,0.0467458197,-0.0136388962,0.003575801,-0.000080856,6.06545682506279E-07,-1.49268200148581E-09,-0.0034326627,0.0001003003,-8.62244118699944E-07,2.27977425632734E-09,115.4086238294,29.0878780821,47.9998027175
-95,-55,2.617993878,0,0,0,5,0.0408612579,0.0245754644,0.0504002892,-0.0140736295,-0.0036544177,8.41275456844917E-05,-6.39316573096406E-07,1.60561093443819E-09,-0.0031697317,0.0001136001,-1.0878407954211E-06,3.07718415652083E-09,120.9147858245,27.2887509636,33.9245024264
-100,65,1.5707963268,0,0,0,5,0.0288981136,0.0062691757,0.0440317441,-0.014082841,0.0034381934,-7.47816272018995E-05,5.42742445002246E-07,-1.31192048583862E-09,-0.0050435485,0.0001542687,-0.000001348,3.56720251793641E-09,132.9801456619,20.6779452575,48.9218323881
-100,-50,2.617993878,0,0,0,5,0.0447213596,0.0447213595,0.0509136301,-0.0141421356,-0.0035737395,8.0441569723885E-05,-5.98804398720401E-07,1.47822158479567E-09,-0.0032658658,0.0001209195,-1.17115165485614E-06,3.3174393649545E-09,126.570971659,28.0801023038,31.9181571626
-95,-55,2.0943951024,0,0,0,5,0.043907462,0.0413755953,0.0524136994,-0.0141378847,-0.0037691719,8.94054146425459E-05,-7.0045211356183E-07,1.82237013250231E-09,-0.0052790371,0.0001794729,-1.72188268031607E-06,0.000000005,122.7525864166,23.509689198,42.1957998699
-95,75,1.0471975512,0,0,0,5,0.0392767386,0.0289008623,0.0509162477,-0.0141901582,0.0035209283,-7.80523371821198E-05,5.71416700713182E-07,-1.38684378656795E-09,0.0020663397,-9.07097436965507E-05,9.28632850572317E-07,-2.68928186503006E-09,99.3345155189,3.3617759703,115.7094265401
-100,-50,2.0943951024,0,0,0,5,0.043917788,0.0401316914,0.0524114282,-0.0141375729,-0.0037105038,8.66885617630397E-05,-6.69880300998552E-07,1.71882013607884E-09,-0.0049239615,0.0001674016,-1.59338103583193E-06,4.54774003440997E-09,123.581246842,27.2589414328,41.6553052213
-95,-55,1.5707963268,0,0,0,5,0.0091495658,0.0033619339,0.0416462573,-0.0139042469,-0.003964474,9.90368462108227E-05,-8.10544969804811E-07,2.16804736852752E-09,-0.0052246327,0.0001751075,-1.69809698534172E-06,0.000000005,139.57269838,15.2359642491,47.8423299193
-100,-50,1.5707963268,0,0,0,5,9.79963164127184E-05,0.0047207465,0.0429096575,-0.0139781438,-0.0037921664,9.18054827017972E-05,-7.34419731138585E-07,1.94449577558177E-09,-0.0048338137,0.0001435667,-1.26474225176627E-06,3.44989231476782E-09,134.4469475361,20.2639440175,52.9215508779
-100,65,1.0471975512,0,0,0,5,0.0447213596,0.0447213596,0.0509136301,-0.0141421356,0.0032503852,-6.67433168817253E-05,4.55621280618707E-07,-0.000000001,-0.0049499443,0.000147091,-1.24285634397103E-06,3.16937087360128E-09,165.582372057,1.99476821478915E-22,53.5003029212
-95,-55,1.0471975512,0,0,0,5,0.0447145254,0.0447038346,0.050913428,-0.0141421243,-0.0041124297,0.000107263,-9.415074931362E-07,2.72989544135757E-09,0.0043572353,-0.000173379,1.86275152686287E-06,-5.91813549779665E-09,100.6448991642,10.6611240404,109.4502957348
-95,75,0.5235987756,0,0,0,5,0.0439219415,0.0359281428,0.0524350686,-0.0141410596,0.0034330518,-7.3917724462111E-05,5.20360303082486E-07,-1.21594221248059E-09,0.0029411574,-0.0001081153,1.02344657367402E-06,-2.81902261457578E-09,111.9974729433,0.9374575049,124.902154279
-100,-50,1.0471975512,0,0,0,5,0.0446878541,0.0446190145,0.0509126334,-0.0141420791,-0.0040100519,0.0001018984,-0.000000871,2.46622469775761E-09,0.0040861952,-0.0001620382,1.72380528794343E-06,-5.40862537634348E-09,105.0467526955,9.0629323851,110.2917030123
-100,65,0.5235987756,0,0,0,5,0.0088673744,0.0024339212,0.0495662956,-0.0140194711,0.0032080602,-6.41941359429338E-05,4.09804081339835E-07,-8.49462675233233E-10,0.002967428,-0.0001006113,0.000000898,-2.34905750710858E-09,113.9913441376,1.2822544538,132.0190931459
-95,75,0,0,0,0,5,0.0093036141,0.0008802401,0.0415827482,-0.0140215756,0.0032472786,-6.56733100635011E-05,4.21444893120157E-07,-8.7810429249574E-10,0.0036273003,-0.0001175933,1.03806837197405E-06,-2.71815648011521E-09,121.4173371112,1.9264556759,134.2516868239
-100,65,0,0,0,0,5,0.0286677165,0.0069196485,0.0440426773,-0.0141181713,0.0032540119,-6.61154877654719E-05,4.3326962210046E-07,-9.38588026595654E-10,0.0035653567,-0.0001146731,9.98455938077987E-07,-2.57305767315014E-09,126.1454418973,1.0473686686,136.1140173229
-100,-50,0.5235987756,0,0,0,5,0.0446880111,0.0446191639,0.0524570447,-0.0141420936,-0.0039929966,0.0001004195,-8.32441624752283E-07,2.19700543139991E-09,0.0037607853,-0.0001286874,1.18955119972627E-06,-3.25223166944068E-09,97.3268088993,21.714834161,127.4776140127
-95,-55,0.5235987756,0,0,0,5,0.0445509129,0.0442710278,0.0524529198,-0.0141419308,-0.0040299855,0.0001023326,-8.53409325696468E-07,2.24838275936477E-09,0.003694097,-0.0001248489,1.13907625386836E-06,-3.07297282893578E-09,95.4683243183,19.4115609638,129.2628864239
-95,70,5.7595865316,0,0,0,5,0.0086944894,-0.0048439115,-0.0493482516,0.0140267724,0.0040122033,-9.96168990772612E-05,7.63661194269187E-07,-1.83459963311315E-09,-0.003563062,0.0001127172,-9.75666623253443E-07,2.50817144691014E-09,70.4825982043,47.6972503463,136.0256506691
-100,60,5.7595865316,0,0,0,5,0.0445491262,-0.0443143916,-0.052453056,0.014141937,0.0040200109,-0.0001015669,8.34849910180498E-07,-2.15637577180216E-09,-0.0035015696,0.0001168953,-1.04742641977317E-06,2.76939385784056E-09,87.2354251092,33.0214066343,131.6181530381
-100,60,5.235987756,0,0,0,5,0.0138997018,0.0205163954,-0.0512218869,0.0140204654,0.0034410181,-8.21119003733314E-05,6.44482362863288E-07,-1.66418092566347E-09,-0.0041994627,0.0001085816,-8.37097051427245E-07,0.000000002,66.2418661025,34.1028708773,143.6325636048
-95,70,5.235987756,0,0,0,5,0.0447221021,-0.0446999716,-0.050939909,0.0142126624,0.0043624934,-0.0001198497,1.0874333752826E-06,-3.1493513910221E-09,-0.0041475933,0.000155455,-1.58024897425471E-06,4.75591796428134E-09,89.0034649334,24.1602008843,115.5088496849
-100,60,4.7123889804,0,0,0,5,0.0407060631,-0.0350038774,-0.0446035938,0.014131191,0.0039783573,-9.92740658298783E-05,8.09087765194447E-07,-2.15079227257452E-09,0.0058892107,-0.0002084277,2.09820807516979E-06,-6.37655792714809E-09,144.7265753232,17.8308082986,44.7299540026
-95,70,4.7123889804,0,0,0,5,-0.0345281371,0.0055288395,-0.0469432485,0.0140463633,0.0043047642,-0.0001166877,1.03673943371592E-06,-0.000000003,-0.0043682424,0.000167995,-1.81369451542489E-06,5.84720376603003E-09,71.4933573092,33.103820256,106.2508751832
-100,60,4.1887902048,0,0,0,5,0.0438987586,-0.0418787506,-0.0524151473,0.0141380829,0.0037999213,-9.08590551980227E-05,7.17309340523622E-07,-1.88053486884711E-09,0.0054640559,-0.0001858309,1.79021392105683E-06,-5.19655614647911E-09,121.9463144402,30.0085052061,42.5304038931
-95,70,4.1887902048,0,0,0,5,-0.0557337765,0.0107454387,-0.0399017881,0.0164771563,0.0037871448,-9.01218056253568E-05,7.00437994856244E-07,-1.81218517898704E-09,0.0044644734,-0.0001212615,9.54286459035728E-07,-2.29362796105502E-09,106.3757783682,36.7985746273,51.6128426993
-100,60,3.6651914292,0,0,0,5,0.0445588212,-0.0438601317,-0.0508940986,0.0141394861,0.0037205091,-8.71947840768307E-05,6.76722969940681E-07,-1.74376224116895E-09,0.003715607,-0.0001392424,1.38953071235437E-06,-4.08032861913059E-09,122.37129038,31.8531736503,33.3628878018
-95,-60,5.7595865316,0,0,0,5,0.0081327402,-0.0032315544,-0.0494619918,0.014019204,-0.0031007178,5.96542360532991E-05,-3.59464734507347E-07,6.95516976141794E-10,-0.0029224173,9.8317530252612E-05,-8.66915428122952E-07,2.2380404282954E-09,110.0811655984,0.4776574864,133.7905120418
-95,70,3.6651914292,0,0,0,5,0.0445540641,-0.0441862173,-0.0508978363,0.0141401554,0.0038516646,-0.000093436,7.48705183879692E-07,-0.000000002,0.0041900523,-0.0001561119,1.57626719434059E-06,-4.71295765034817E-09,116.5111978308,33.33445204,35.1174220452
-95,70,3.1415926536,0,0,0,5,0.0446885799,-0.0445749479,-0.0447048131,0.014132393,0.0037819017,-9.01565924766278E-05,7.12508803231415E-07,-1.86766505072272E-09,0.002318988,-0.0001038329,1.1187721253992E-06,-3.44363731075636E-09,118.5630619104,46.8530538331,16.9667112754
-95,-60,5.235987756,0,0,0,5,0.0250761429,-0.0168073801,-0.0503718109,0.0141132662,-0.0031587521,6.18083168457721E-05,-3.78843046527992E-07,7.56763795361531E-10,-0.002485877,9.22216206998287E-05,-8.54860348329221E-07,2.28469788639912E-09,97.8762432487,0.0759708024,125.8589732307
-100,-55,5.7595865316,0,0,0,5,0.0407021631,-0.0325561539,-0.0523422453,0.0141373458,-0.0032064803,6.4343225252938E-05,-4.19664947148631E-07,9.08090752143521E-10,-0.0027641741,9.51586133251391E-05,-8.4427755269777E-07,2.18011529514622E-09,115.8325194155,0.3517199979,133.2947629856
-95,70,2.617993878,0,0,0,5,0.0343149932,-0.0308793426,0.0561266862,-0.0128034793,0.0032028227,-6.33596140968997E-05,3.86655405100246E-07,-7.51281407268972E-10,-0.0011530295,3.38084562881444E-05,-2.99457093308182E-07,8.19462180154202E-10,102.4836992574,71.6332272136,10.8330315992
-95,70,2.0943951024,0,0,0,5,0.0290199573,-0.0034402912,0.0509797276,-0.0139842181,0.0037283854,-8.78367664415456E-05,6.89639145078751E-07,-1.78769740918224E-09,-0.0041385821,0.0001358945,-1.26477798906006E-06,3.55870059621679E-09,113.6509925752,31.357841822,41.6580979082
-100,60,2.617993878,0,0,0,5,0.0095802729,0.0001813282,0.0424439063,-0.0133396181,0.003392919,-7.26354131576275E-05,5.11668249393576E-07,-1.19913038459884E-09,-0.0009480327,3.20556978088426E-05,-2.99383902969078E-07,8.3683808905243E-10,136.2112197637,27.5588137713,23.9289420254
-100,-55,5.235987756,0,0,0,5,0.0073909433,-0.0040121,-0.0482527026,0.0140070716,-0.0031106726,6.01892956697132E-05,-3.67605243608779E-07,7.23511507005887E-10,-0.0023190869,8.58555379667485E-05,-7.88099505635681E-07,2.08305666875924E-09,102.7277816341,0.4662659482,127.9328471388
-95,-60,4.7123889804,0,0,0,5,0.028769865,-0.0090293854,-0.044052084,0.0140870174,-0.0033506217,7.11123797626397E-05,-5.04805839200821E-07,1.19843705303048E-09,0.0049948264,-0.0001512569,1.30738009520552E-06,-3.42018458767646E-09,142.6822252612,6.0054449222,49.787870833
-100,60,2.0943951024,0,0,0,5,0.0095271683,0.0009698978,0.0471221943,-0.0136804122,0.0035178263,-7.83009400469334E-05,5.79235598916707E-07,-1.40775065953906E-09,-0.0035709784,0.0001032471,-8.77764810016524E-07,2.29449616711527E-09,117.3046209003,26.5037144403,48.8567677858
-95,70,1.5707963268,0,0,0,5,0.0289644594,0.0037619283,0.044007514,-0.0140788167,0.0035097753,-7.78861897086876E-05,5.76346791064548E-07,-1.41749221259657E-09,-0.0050995704,0.000157841,-1.39665799891001E-06,3.74408777961295E-09,127.9972356127,20.9137488552,48.1328799966
-100,60,1.5707963268,0,0,0,5,0.0093684422,0.0020795519,0.0416590686,-0.0139045737,0.003296247,-6.87934275275995E-05,4.77260559912195E-07,-1.09992076220378E-09,-0.0045071632,0.0001304453,-0.000001097,2.82036765164398E-09,136.9154163068,15.2825916025,52.7105265956
-100,-55,4.7123889804,0,0,0,5,0.0407950656,-0.0329354189,-0.0446290007,0.0141353483,-0.003390461,7.30558528739974E-05,-0.000000533,1.283544204224E-09,-0.0005645705,5.02480759924137E-05,-5.8172171213834E-07,1.73864797680161E-09,100.3325659188,0.1800587601,109.3158770642
-95,-60,4.1887902048,0,0,0,5,0.0290549793,-0.0023547239,-0.0511996548,0.0140162287,-0.0035721803,0.000080649,-0.000000607,1.50632527058863E-09,0.0042603312,-0.0001336349,1.18875853935152E-06,-3.19630723982378E-09,117.8033344304,24.7623198666,44.1365219025
-100,-55,4.1887902048,0,0,0,5,0.0495923773,-0.0008561615,-0.0526661149,0.014133918,-0.0035147158,7.80731653243232E-05,-5.79333380961232E-07,1.42549239677763E-09,0.0045489372,-0.0001467643,1.32156279507923E-06,-3.56389068665313E-09,120.8307415969,27.9507675794,43.0093813368
-95,70,1.0471975512,0,0,0,5,0.0447213594,0.044721354,0.0509387129,-0.0142125996,0.0033225126,-6.9835711344931E-05,4.89529932936386E-07,-1.15214041336363E-09,-0.0051115168,0.0001568502,-1.36857738632278E-06,3.603885315523E-09,160.7725894346,0,51.9687997589
-95,-60,3.6651914292,0,0,0,5,0.0099427289,-0.0006128156,-0.0416449533,0.013198806,-0.003439058,7.47936490990867E-05,-5.3878516456573E-07,1.30001061720773E-09,0.0007032134,-2.47097798393843E-05,0.000000238,-6.83924081114461E-10,152.8525504234,7.6737304716,22.0170502148
-100,-55,3.6651914292,0,0,0,5,0.0095323214,-0.0007251351,-0.0431581193,0.0134623764,-0.0033303491,7.00051100621409E-05,-4.84839615031539E-07,1.12072173590029E-09,0.0009771355,-3.4530695239632E-05,3.26714374317995E-07,-9.15320847602137E-10,141.7127682324,19.8687785718,26.0745978409
-100,60,1.0471975512,0,0,0,5,0.0447432486,0.0447432302,0.05093874,-0.0142126705,0.0031901039,-6.43128875417746E-05,4.31283083449596E-07,-0.000000001,-0.0048898418,0.0001435406,-1.198125801313E-06,0.000000003,166.0043923972,0,54.3072364614
-95,-60,3.1415926536,0,0,0,5,0.0095142092,0.0011105248,0.013926971,-0.0028446264,-0.0036885272,8.58674879523108E-05,-6.57729509481326E-07,1.64221552951697E-09,-0.0001738217,0.00000474,-3.94793342755531E-08,1.02887547144365E-10,114.1200090554,58.3789875742,8.8319720726
-95,70,0.5235987756,0,0,0,5,0.0087976469,0.0021663633,0.0495690434,-0.0140162562,0.0032444293,-6.55440653574118E-05,4.20223084635927E-07,-8.71837863702567E-10,0.0029825334,-0.0001024885,9.24912607764822E-07,-2.44498970254687E-09,109.7537063027,0.7753644365,130.5582260222
-95,-60,2.617993878,0,0,0,5,0.0110947659,-0.0031184744,0.0427183762,-0.0133922527,-0.0038511955,9.36094781438097E-05,-7.47610575147574E-07,1.94104535299818E-09,-0.0019105515,6.370985667791E-05,-6.0005800930781E-07,1.70775367629138E-09,97.4169799524,48.6867031959,37.6255111201
-95,70,0,0,0,0,5,0.0091869093,0.0013564268,0.0415053178,-0.0140225636,0.0031978237,-6.36365126065303E-05,4.00694685974321E-07,-8.17934859533765E-10,0.003583905,-0.0001151154,0.000001006,-2.60730438368535E-09,121.2632410771,1.5756384978,135.6775703162
-100,60,0.5235987756,0,0,0,5,0.0447210621,0.044721167,0.0524580338,-0.0142126705,0.0032711858,-6.70881253435063E-05,4.4883162751173E-07,-0.000000001,0.0027497663,-9.6402171381275E-05,8.67370709713557E-07,-2.26836281018532E-09,115.6473957375,0.4577403915,131.4720390764
-100,-55,2.617993878,0,0,0,5,0.0446890724,0.0444810852,0.0509093065,-0.0141415298,-0.0036371841,8.33356485735338E-05,-6.30788786823671E-07,1.58033748068188E-09,-0.0034133757,0.000126238,-1.2299034171166E-06,3.51281323256407E-09,122.7464284132,31.4614141235,32.817138289
-95,-60,2.0943951024,0,0,0,5,0.0447213595,0.0447213595,0.0524580414,-0.0141421356,-0.0038160713,9.16135178914639E-05,-7.25829470114016E-07,1.90994831480532E-09,-0.0055711199,0.0001896356,-1.83188530755386E-06,5.33619374704099E-09,122.0859673031,24.9556406988,42.5800938536
-95,65,5.7595865316,0,0,0,5,0.0405060061,-0.0364882071,-0.0523304022,0.014137281,0.004017217,-0.0001011053,8.20077779821898E-07,-2.08512739900046E-09,-0.0034543515,0.000113796,-1.00654666661768E-06,2.62730012352653E-09,82.1658745318,34.5225701628,133.4185626676
-100,-55,2.0943951024,0,0,0,5,0.0408088479,0.0301970703,0.0522365907,-0.0141209078,-0.0037559575,8.87962468495151E-05,-6.93501510662523E-07,1.79766118248932E-09,-0.0051582792,0.000174893,-1.67123053121607E-06,4.80334387183535E-09,122.2651860651,28.898960489,42.2466540171
-95,-60,1.5707963268,0,0,0,5,0.0438716033,0.0427077619,0.0447107678,-0.0141404549,-0.0045308662,0.0001305338,-1.26907748541855E-06,3.9296810383349E-09,0.0045131187,-0.0001628513,1.69488746170915E-06,-5.3126814352662E-09,80.7791778256,16.6865393687,108.795747985
-95,65,5.235987756,0,0,0,5,0.0446860509,-0.0446478294,-0.0509126429,0.0141420841,0.0044130847,-0.0001228824,1.13563616492043E-06,-3.34426222245902E-09,-0.0043782167,0.0001615726,-1.64254581117384E-06,0.000000005,86.778230211,24.3008450105,115.0253322776
-100,-55,1.5707963268,0,0,0,5,0.0095169661,0.0129920822,0.042338428,-0.0139846365,-0.003875548,9.41896797403156E-05,-7.39699477008651E-07,1.89066264556531E-09,-0.0017699324,1.51950678513455E-05,1.2151422845551E-07,-8.95455801935816E-10,100.5797900956,34.0620486073,80.793004166
-95,-60,1.0471975512,0,0,0,5,0.0446873127,0.044638519,0.0509126352,-0.0141420815,-0.0045781457,0.0001326475,-1.28538173511347E-06,0.000000004,0.0049149671,-0.0001808551,1.87158575124184E-06,-5.8049609101332E-09,81.4849997965,28.9396641927,112.5771376514
-95,65,4.7123889804,0,0,0,5,0.0446865309,-0.0446460516,-0.0447352576,0.0141420684,0.0046221493,-0.0001355427,1.33574924468539E-06,-4.1856379548755E-09,-0.0045849763,0.0001689455,-1.78272433422849E-06,5.65480821020368E-09,79.8043330712,20.4395775992,107.8129210369
-95,65,4.1887902048,0,0,0,5,0.0438780873,-0.0424514569,-0.0524181901,0.0141383682,0.0038886853,-9.5166306496263E-05,0.000000768,-2.05438028931213E-09,0.0057081517,-0.0001958764,1.9111913201836E-06,-5.62797312916591E-09,117.1229353814,31.2870936923,42.6679307963
-95,-60,0.5235987756,0,0,0,5,0.0438580388,0.0427875763,0.0524328159,-0.0141411512,-0.0039989081,0.0001004992,-8.21585103040435E-07,2.11064267429372E-09,0.0034708797,-0.0001154132,1.02940972279884E-06,-2.70866082717485E-09,87.4999673227,27.7663591589,132.2768174916
-100,-55,1.0471975512,0,0,0,5,0.0447201332,0.0447182928,0.0509136648,-0.0142126654,-0.0040932775,0.0001062011,-9.25488485881619E-07,2.66363166736032E-09,0.0042591363,-0.0001695263,1.81614286374189E-06,-5.74689094028141E-09,97.4948879275,18.4429861253,109.6839058358
-95,65,3.6651914292,0,0,0,5,0.0445564139,-0.0440833305,-0.0508963936,0.0141399014,0.0037843009,-9.01823892344941E-05,7.10622566351777E-07,-1.85787274182141E-09,0.0040226415,-0.0001496127,0.0000015,-4.44500128087668E-09,120.2000493937,28.9461074767,34.5368359366
-95,65,3.1415926536,0,0,0,5,0.0408477522,-0.0268388829,-0.0400982651,0.0126463602,0.0037389764,-8.81387709741045E-05,6.89133223330291E-07,-1.78613353856647E-09,0.0013360152,-3.81577900857225E-05,3.31107297604021E-07,-8.96405187582844E-10,118.8821268801,47.126679975,15.5007763471
-95,65,2.617993878,0,0,0,5,0.0091935213,-0.0008021446,0.0359266745,-0.0119053936,0.0036194067,-8.29326153131149E-05,6.31482034199234E-07,-1.60209551621307E-09,0.00095213,-2.65501278901949E-05,2.26612471340089E-07,-6.05960643543103E-10,169.5641072104,7.1434568196,5.6885754121
-95,65,2.0943951024,0,0,0,5,0.0095593517,0.0003801737,0.0467592838,-0.0136367695,0.003582868,-8.12143591316697E-05,6.11511815796303E-07,-1.51088139916999E-09,-0.003487129,0.0001016945,-8.74082440773425E-07,2.31256213464259E-09,114.5635654415,24.8256960608,48.0553760849
-100,-55,0.5235987756,0,0,0,5,0.0446875494,0.044627971,0.0524570298,-0.0141420943,-0.0040556047,0.0001036364,-8.69565074607474E-07,2.30407954644889E-09,0.0037321238,-0.0001265646,1.15967826729792E-06,-3.14298841090032E-09,94.8370830441,25.1013479273,128.6522095407
-100,55,5.7595865316,0,0,0,5,0.0676980632,0.0344274966,-0.0547043798,0.0141137786,0.0039311146,-9.86867404281026E-05,8.15647486615993E-07,-2.1418554406287E-09,-0.0037661806,0.0001270246,-1.15976019163264E-06,3.13422194752886E-09,93.2202678019,27.2718139865,129.0140309182
-95,65,1.5707963268,0,0,0,5,0.044559877,0.0434043407,0.0447304099,-0.0141416435,0.0034445227,-7.50806606441378E-05,0.000000547,-1.32969706623033E-09,-0.0051796936,0.0001610694,-1.4242088566531E-06,3.80061909818456E-09,149.0917353844,0.0324295696,48.1198053996
-100,55,5.235987756,0,0,0,5,0.0441562292,-0.0429760036,-0.0506759935,0.0141420492,0.0040744192,-0.0001051506,9.10611937030555E-07,-2.60859163769493E-09,-0.0042566797,0.0001694454,-1.81538352643941E-06,5.74472460948823E-09,93.6907140656,22.2844946098,109.7164139375
-95,65,1.0471975512,0,0,0,5,0.0447213608,0.0447213596,0.0509136301,-0.0141421527,0.0032242564,-6.56781278316314E-05,4.44638780128571E-07,-0.000000001,-0.0049460188,0.0001468578,-1.23990179530141E-06,3.15932911401254E-09,160.6569018652,2.4178933806196E-21,53.5884894159
-95,-65,5.7595865316,0,0,0,5,0.0084992653,-0.0027206519,-0.049523568,0.0140179241,-0.003176222,6.27200603703235E-05,-3.90865315560975E-07,7.85981255896201E-10,-0.0029557231,0.0001004767,-8.96168400287644E-07,2.34088253583592E-09,109.8370834196,0.5462848384,132.1817482274
-100,55,4.7123889804,0,0,0,5,0.0438944401,-0.0423080806,-0.0447089457,0.0141399485,0.0038402001,-9.23998540565438E-05,7.24065307843146E-07,-1.8490345073724E-09,0.0057006336,-0.0001951272,1.89922510293437E-06,-5.57912475831514E-09,150.9104622086,9.0658816251,45.9065564266
-95,65,0.5235987756,0,0,0,5,0.0084992693,0.0027206599,0.049523568,-0.0140179241,0.003176222,-6.2720060440814E-05,3.90865316849152E-07,-7.85981260549057E-10,0.0029557231,-0.0001004766,8.96168394262065E-07,-2.34088252280342E-09,109.8370835469,0.5462848703,132.181748062
-100,55,4.1887902048,0,0,0,5,0.0168884554,0.0100296341,-0.0475584629,0.0137733593,0.0037399294,-8.80338437061799E-05,6.77380198029452E-07,-1.70551711745791E-09,0.0040538964,-0.0001259716,1.14374299990529E-06,-3.18393905728872E-09,105.7053918563,41.9642664011,47.3266949957
-100,-60,5.7595865316,0,0,0,5,0.0238817682,0.0056652007,-0.0527331717,0.0140213892,-0.0031666525,6.1513377893846E-05,-3.61923975409699E-07,6.67929984329376E-10,-0.0034677468,9.78441796911378E-05,-7.68658758202811E-07,1.80756775188409E-09,105.2468661771,1.7096270706,147.657190617
-95,65,0,0,0,0,5,0.0090444356,0.0018211186,0.0414194477,-0.0140233895,0.0031466545,-6.15618638644439E-05,3.79873341788394E-07,-7.58507414548577E-10,0.003540076,-0.0001126629,9.74784327431559E-07,-2.50044052932699E-09,121.2688391256,1.3035621969,137.1134450901
-95,-65,5.235987756,0,0,0,5,0.0447213278,-0.0447213616,-0.0509387124,0.0142125739,-0.0032243786,6.56826139760841E-05,-4.44674630912807E-07,0.000000001,0.0049460189,-0.0001468578,1.23990186122103E-06,-3.15932932075968E-09,160.6515312466,0,53.5548704636
-100,55,3.6651914292,0,0,0,5,0.0094702961,-0.0013996324,-0.0412297679,0.0131624896,0.0037070991,-8.66911901016235E-05,6.65500390350578E-07,-1.6620408852089E-09,0.0017555578,-5.2638566547568E-05,4.6109221624716E-07,-1.23794515016153E-09,111.9200784119,35.2756220386,40.663793929
-95,-65,4.7123889804,0,0,0,5,0.0094389305,-0.0016104035,-0.0415801196,0.013892404,-0.0033535611,7.11985933554274E-05,-5.02283106132247E-07,1.1753781519159E-09,0.0045317845,-0.0001324915,1.12716317065667E-06,-2.93343359880802E-09,132.1882691171,14.8796759335,52.0241604006
-95,60,5.7595865316,0,0,0,5,0.0438580388,-0.0427875763,-0.0524328159,0.0141411512,0.0039989081,-0.0001004992,8.21585103012209E-07,-2.1106426742177E-09,-0.0034708797,0.0001154132,-1.02940972289953E-06,2.70866082739014E-09,87.4999673228,27.7663591558,132.2768174945
-100,-60,5.235987756,0,0,0,5,0.0447213413,-0.0447213462,-0.0509136416,0.0142126721,-0.0031899974,0.00006431,-4.31261367651592E-07,0.000000001,0.0048898146,-0.0001435391,1.19811133021964E-06,-0.000000003,166.006543443,2.94814984400617E-20,54.3078975917
-95,-65,4.1887902048,0,0,0,5,0.0447149827,0.0445410355,-0.0524575759,0.0141420846,-0.0036169204,0.000082628,-6.2893116908832E-07,1.58608183844757E-09,0.0043795701,-0.0001480712,1.38242463473487E-06,-3.84888823801262E-09,117.0073380467,28.9632081288,40.3152038577
-95,60,5.235987756,0,0,0,5,0.044551356,-0.044308411,-0.0509086552,0.0141418652,0.0045776691,-0.0001326193,1.28492290878669E-06,-0.000000004,-0.0049112177,0.0001807619,-1.87084429252832E-06,5.80305450586818E-09,81.5057630025,28.9301565546,112.5670498537
-95,-65,3.6651914292,0,0,0,5,0.0408677252,0.0238881348,-0.0493181212,0.0137311346,-0.003724589,8.75037101161555E-05,-0.000000683,1.76801655955793E-09,-0.0029815233,8.48708686687754E-05,-7.33610826838695E-07,0.000000002,174.7175196227,2.6431755414,4.423317627
-100,55,2.617993878,0,0,0,5,0.0408650257,0.0069952079,0.0504178274,-0.0140921766,0.0035228925,-7.83150517384718E-05,5.78277301362559E-07,-1.42093060324103E-09,-0.0023771506,9.62072569747142E-05,-9.61681838826187E-07,2.76712109209111E-09,158.2552767871,0.5975474822,27.5894430544
-95,-65,3.1415926536,0,0,0,5,0.0408477522,0.0268388829,0.0400982651,-0.0126463602,-0.0037389764,8.81387709741298E-05,-6.8913322333077E-07,1.78613353856898E-09,-0.0013360152,3.8157790091449E-05,-3.31107297664664E-07,8.96405187767673E-10,118.88212688,47.1266799759,15.5007763463
-95,60,4.7123889804,0,0,0,5,0.0107305078,-0.0145706548,-0.0439489129,0.0140059232,0.0039296539,-9.68020512447386E-05,7.7507046452188E-07,-0.000000002,0.0056322448,-0.0001925453,1.89794846854663E-06,-5.6980240795323E-09,143.3726762337,12.9655694803,47.0518860143
-100,55,2.0943951024,0,0,0,5,0.0445620663,0.0428829912,0.0524481014,-0.0141411268,0.0035140504,-7.80409364045808E-05,0.000000579,-1.42451053541288E-09,-0.0045489007,0.0001468828,-1.32336931240128E-06,3.57022148917131E-09,120.1450634042,28.6769010454,42.9681505401
-95,-65,2.617993878,0,0,0,5,0.0445564139,0.0440833305,0.0508963936,-0.0141399014,-0.0037843009,9.01823892346851E-05,-7.10622566354097E-07,1.85787274182906E-09,-0.0040226415,0.0001496127,-0.0000015,4.4450012808669E-09,120.2000493902,28.9461074803,34.5368359365
-100,-60,4.7123889804,0,0,0,5,-0.0061279191,-0.0020012297,-0.0397991434,0.0145625614,-0.0032647285,6.71263713998168E-05,-4.51571838611855E-07,0.000000001,0.0045618505,-0.0001273643,1.04484675275596E-06,-2.63867645912444E-09,138.5408141126,12.4671230124,53.9676231503
-95,60,4.1887902048,0,0,0,5,0.0438954548,-0.0420077103,-0.0524155462,0.0141381246,0.0038164084,-9.16306545584506E-05,0.000000726,-1.9102183215913E-09,0.0055630468,-0.0001893122,1.8283069250113E-06,-5.3246657420002E-09,121.898839747,25.13780508,42.5945730523
-95,-65,2.0943951024,0,0,0,5,0.0445513801,0.0442581531,0.0524500763,-0.0141413815,-0.0038881909,9.51418634222688E-05,-7.67794978271662E-07,2.05390050651045E-09,-0.0057156481,0.0001961589,-1.91424196937527E-06,5.63772506572727E-09,117.2126125152,31.1977443277,42.6596857168
-100,-60,4.1887902048,0,0,0,5,0.0439317683,-0.0229679381,-0.0524045923,0.0141365298,-0.0035557308,7.98529028497475E-05,-5.979359743881E-07,1.48477991550837E-09,0.0044126919,-0.0001459937,0.000001339,-3.66817719676481E-09,118.6886555272,31.1417845612,41.5842884952
-95,60,3.6651914292,0,0,0,5,0.0020177924,0.0040805834,-0.0422234997,0.0133613772,0.0038461368,-0.000093353,7.44345741159912E-07,-1.92974207930056E-09,0.0018823806,-6.18178334126891E-05,5.7779669699792E-07,-1.63689777564135E-09,97.6954389912,47.737155162,38.322339951
-100,-60,3.6651914292,0,0,0,5,0.0095802392,-0.0001812925,-0.0424439027,0.013339618,-0.003392919,7.2635412529492E-05,-5.11668241330202E-07,1.19913035393866E-09,0.0009480327,-3.20556977175775E-05,2.99383901387262E-07,-8.36838083401522E-10,136.2112175873,27.5588153256,23.9289427467
-95,60,3.1415926536,0,0,0,5,0.0289200533,-0.0056515841,-0.0275506273,0.0066328169,0.0037015124,-8.63902661749892E-05,6.67923752376015E-07,-1.70489987564581E-09,0.00072638,-0.000020157,1.71055117237218E-07,-4.54522969716142E-10,117.2150471089,52.4294261682,11.3097635172
-95,-65,1.5707963268,0,0,0,5,0.0445474866,0.0443461132,0.0447311679,-0.0141417996,-0.0046218497,0.0001355256,-1.33549235330367E-06,4.18460303268451E-09,0.004584385,-0.0001689303,1.78258777531505E-06,-5.65440002441524E-09,79.8127872295,20.4329104216,107.8123055033
-95,60,2.617993878,0,0,0,5,0.0407194848,-0.011112068,0.0501246621,-0.0139350886,0.003621698,-8.28762422390079E-05,6.31512334827841E-07,-1.60423527472688E-09,0.0038529745,-0.0001109534,9.6131203078712E-07,-2.58494590116014E-09,176.3802354155,1.2871875005,3.753981051
-95,-65,1.0471975512,0,0,0,5,0.0445450914,0.044354922,0.0509086946,-0.0141418778,-0.0044130025,0.0001228774,-1.13554306506524E-06,3.34377325321063E-09,0.0043772456,-0.0001615475,1.64233939122572E-06,-0.000000005,86.7808805742,24.3015415898,115.0231344697
-95,60,2.0943951024,0,0,0,5,0.398397152,-0.2388068216,0.0480676809,-0.0138334152,0.0033830091,-7.20041873314091E-05,0.0000005,-1.13984242825025E-09,-0.0041761661,0.0001274958,-1.11879918153782E-06,0.000000003,99.3282597718,42.3848986089,45.575868758
-100,55,1.5707963268,0,0,0,5,0.0407950668,0.0329354143,0.0446290007,-0.0141353483,0.003390461,-7.30558528861227E-05,0.000000533,-1.28354420465157E-09,0.0005645705,-5.02480759641624E-05,5.81721711954722E-07,-1.73864797639875E-09,100.332565892,0.1800587929,109.3158770584
-95,60,1.5707963268,0,0,0,5,0.0439131996,0.0404868077,0.0447080622,-0.0141398517,0.0033674277,-7.18184953304674E-05,5.12677186001232E-07,-1.2242617877261E-09,-0.0051091881,0.0001567432,-1.36739370701285E-06,3.60024606777735E-09,148.872393826,0.1668991099,49.0867162633
-95,-65,0.5235987756,0,0,0,5,0.0438430498,0.0429264371,0.0524325102,-0.0141411637,-0.004021274,0.0001013406,-8.23909677583043E-07,2.09905960356332E-09,0.0034520195,-0.0001138211,1.00709670423675E-06,-2.62917030467268E-09,82.7223980316,33.9510376461,133.3890265038
-100,-60,2.617993878,0,0,0,5,0.0445588212,0.0438601317,0.0508940986,-0.0141394861,-0.0037205091,8.71947840766448E-05,-6.76722969938507E-07,1.74376224116215E-09,-0.003715607,0.0001392424,-1.38953071235782E-06,4.0803286191381E-09,122.3712903733,31.8531736569,33.3628878019
-100,55,1.0471975512,0,0,0,5,0.0073909452,0.0040121002,0.0482527026,-0.0140070716,0.0031106727,-6.0189296118783E-05,3.67605249169957E-07,-7.23511524927394E-10,0.0023190869,-8.58555370703614E-05,7.88099498886571E-07,-2.08305665236823E-09,102.7277817411,0.4662658824,127.9328470736
-95,60,1.0471975512,0,0,0,5,0.0397043107,0.0356747013,0.0508058076,-0.0141363177,0.0032131672,-0.000064046,4.03454836211989E-07,-8.42568787647652E-10,0.0026153936,-0.000095203,8.7622610969265E-07,-2.33328927020366E-09,97.2205178272,0.0159969837,126.3446272263
-100,-60,2.0943951024,0,0,0,5,0.0438987586,0.0418787506,0.0524151473,-0.0141380829,-0.0037999213,9.08590551957744E-05,-7.1730934049942E-07,1.88053486878378E-09,-0.0054640559,0.0001858309,-1.79021392111517E-06,5.19655614661699E-09,121.9463139961,30.0085056493,42.5304038938
-100,55,0.5235987756,0,0,0,5,0.0084123098,0.0033592884,0.0494847205,-0.014022985,0.0030920677,-5.9529352440156E-05,3.63163778291641E-07,-7.1723061130948E-10,0.0029072148,-9.66392874698639E-05,8.44073058579152E-07,-2.15976574643309E-09,114.8916044918,0.8375140611,135.0762698108
-100,-60,1.5707963268,0,0,0,5,0.065371694,0.0115260151,0.0422519763,-0.0139902867,-0.0040057478,0.0001008012,-8.23122210507672E-07,2.18924222368489E-09,-0.0011447418,-7.32024105921623E-06,3.64908552716628E-07,-1.70668565585103E-09,98.1390518849,34.9127516335,83.7886296863
-95,60,0.5235987756,0,0,0,5,0.0081327527,0.0032315293,0.0494619919,-0.014019204,0.0031007179,-5.96542367825169E-05,3.59464742852702E-07,-6.95517001201669E-10,0.0029224172,-9.83175292323264E-05,8.66915421240543E-07,-2.23804041295664E-09,110.0811656873,0.4776574755,133.7905119121
-100,55,0,0,0,0,5,0.008961601,0.0025015743,0.0413074035,-0.0140287466,0.0030835745,-5.91308749143428E-05,3.58602558106237E-07,-7.04006362720697E-10,0.003356567,-0.000103489,8.65398846988418E-07,-2.14324556078741E-09,125.0419133072,1.4676427897,141.7683146783
-100,-60,1.0471975512,0,0,0,5,0.0445496427,0.044305103,0.0509085889,-0.0141418555,-0.0041970213,0.0001116915,-9.95324384907211E-07,2.90668230432651E-09,0.0043619488,-0.0001724486,1.84283626206845E-06,-5.82580002468676E-09,96.5497417659,20.8611915133,110.0407968337
-100,50,5.7595865316,0,0,0,5,0.0445548653,-0.0442128277,-0.0524530587,0.0141419258,0.0039931246,-0.0001004256,8.32495078672432E-07,-2.19704020289321E-09,-0.0037600813,0.0001286689,-1.18940620099753E-06,3.25187654149509E-09,97.3159896963,21.7287147002,127.4757092906
-100,-60,0.5235987756,0,0,0,5,0.043866832,0.0427236119,0.0524331131,-0.0141411428,-0.0040192723,0.0001015259,-8.34227121753299E-07,2.15411973510439E-09,0.0035002142,-0.0001168568,1.04711078118623E-06,-2.76859984972972E-09,87.1297643286,33.1360785868,131.6163515821
-95,60,0,0,0,0,5,0.04472136,0.0447218882,0.0447362801,-0.0141422227,0.0031660156,-6.32308791983902E-05,4.18341996825799E-07,-9.25451285809769E-10,-0.0048032462,0.0001385017,-1.13559777100157E-06,2.81003153081103E-09,190.0646221081,1.4394495013754E-21,61.0738273869
-95,-70,5.7595865316,0,0,0,5,0.0285974689,-0.0076611161,-0.0518880566,0.014116589,-0.0033218266,6.89467747102485E-05,-4.61751124883576E-07,0.000000001,-0.002867678,0.0001014503,-9.28091638304851E-07,2.47332884948044E-09,110.4746003145,0.6359712144,128.9691805753
-100,50,5.235987756,0,0,0,5,0.0508080162,-0.0051734836,-0.0510212951,0.0141328437,0.0039976589,-0.0001012545,0.000000862,-2.43327770908267E-09,-0.0039975108,0.0001599021,-1.70738552114817E-06,5.3679233452196E-09,111.6227721405,2.7889319638,110.0303248564
